time,signal
0,2079
0.004,2079
0.008,2079
0.012,2079
0.016,2080
0.02,2080
0.024,2079
0.028,2078
0.032,2077
0.036,2075
0.04,2075
0.044,2076
0.048,2076
0.052,2077
0.056,2074
0.06,2076
0.064,2075
0.068,2077
0.072,2079
0.076,2085
0.08,2088
0.084,2091
0.088,2102
0.092,2112
0.096,2124
0.1,2134
0.104,2144
0.108,2154
0.112,2165
0.116,2168
0.12,2177
0.124,2183
0.128,2185
0.132,2187
0.136,2192
0.14,2196
0.144,2193
0.148,2197
0.152,2196
0.156,2200
0.16,2196
0.164,2198
0.168,2197
0.172,2192
0.176,2192
0.18,2193
0.184,2194
0.188,2201
0.192,2222
0.196,2253
0.2,2285
0.204,2319
0.208,2356
0.212,2388
0.216,2438
0.22,2517
0.224,2588
0.228,2660
0.232,2727
0.236,2762
0.24,2832
0.244,2939
0.248,3061
0.252,3167
0.256,3276
0.26,3321
0.264,3334
0.268,3219
0.272,3038
0.276,2788
0.28,2503
0.284,2278
0.288,2123
0.292,2080
0.296,2065
0.3,2055
0.304,2044
0.308,2029
0.312,2016
0.316,2017
0.32,2017
0.324,2010
0.328,2008
0.332,2005
0.336,1998
0.34,1992
0.344,1988
0.348,1985
0.352,1973
0.356,1965
0.36,1958
0.364,1954
0.368,1946
0.372,1934
0.376,1932
0.38,1923
0.384,1915
0.388,1903
0.392,1898
0.396,1891
0.4,1878
0.404,1870
0.408,1863
0.412,1856
0.416,1844
0.42,1838
0.424,1835
0.428,1836
0.432,1834
0.436,1836
0.44,1840
0.444,1852
0.448,1865
0.452,1884
0.456,1909
0.46,1933
0.464,1951
0.468,1970
0.472,1996
0.476,2022
0.48,2038
0.484,2055
0.488,2068
0.492,2084
0.496,2091
0.5,2097
0.504,2106
0.508,2112
0.512,2120
0.516,2121
0.52,2125
0.524,2130
0.528,2130
0.532,2127
0.536,2132
0.54,2132
0.544,2128
0.548,2127
0.552,2125
0.556,2125
0.56,2124
0.564,2121
0.568,2117
0.572,2117
0.576,2117
0.58,2119
0.584,2119
0.588,2119
0.592,2117
0.596,2115
0.6,2113
0.604,2112
0.608,2113
0.612,2108
0.616,2105
0.62,2100
0.624,2099
0.628,2114
0.632,2116
0.636,2118
0.64,2119
0.644,2120
0.648,2116
0.652,2121
0.656,2117
0.66,2114
0.664,2116
0.668,2113
0.672,2113
0.676,2113
0.68,2115
0.684,2115
0.688,2113
0.692,2114
0.696,2110
0.7,2108
0.704,2113
0.708,2111
0.712,2106
0.716,2084
0.72,2051
0.724,2070
0.728,2196
0.732,2347
0.736,2529
0.74,2846
0.744,3004
0.748,2882
0.752,2862
0.756,2819
0.76,2652
0.764,2488
0.768,2383
0.772,2295
0.776,2202
0.78,2119
0.784,2078
0.788,2065
0.792,2055
0.796,2049
0.8,2046
0.804,2037
0.808,2035
0.812,2035
0.816,2032
0.82,2030
0.824,2032
0.828,2033
0.832,2034
0.836,2030
0.84,2025
0.844,2025
0.848,2022
0.852,2016
0.856,2013
0.86,2009
0.864,2011
0.868,2009
0.872,2005
0.876,2005
0.88,2005
0.884,2003
0.888,2001
0.892,2003
0.896,2004
0.9,2002
0.904,1997
0.908,1990
0.912,1986
0.916,1980
0.92,1978
0.924,1975
0.928,1973
0.932,1977
0.936,1974
0.94,1977
0.944,1984
0.948,1994
0.952,2006
0.956,2012
0.96,2022
0.964,2032
0.968,2044
0.972,2056
0.976,2060
0.98,2066
0.984,2071
0.988,2075
0.992,2075
0.996,2079
1,2083
1.004,2087
1.008,2086
1.012,2087
1.016,2087
1.02,2081
1.024,2082
1.028,2081
1.032,2085
1.036,2089
1.04,2087
1.044,2087
1.048,2088
1.052,2087
1.056,2087
1.06,2085
1.064,2087
1.068,2088
1.072,2086
1.076,2084
1.08,2082
1.084,2076
1.088,2076
1.092,2070
1.096,2062
1.1,2061
1.104,2061
1.108,2061
1.112,2056
1.116,2059
1.12,2060
1.124,2058
1.128,2058
1.132,2058
1.136,2058
1.14,2058
1.144,2057
1.148,2056
1.152,2059
1.156,2058
1.16,2058
1.164,2060
1.168,2058
1.172,2061
1.176,2065
1.18,2064
1.184,2063
1.188,2063
1.192,2067
1.196,2069
1.2,2069
1.204,2070
1.208,2071
1.212,2072
1.216,2069
1.22,2066
1.224,2066
1.228,2062
1.232,2064
1.236,2057
1.24,2055
1.244,2055
1.248,2054
1.252,2051
1.256,2050
1.26,2052
1.264,2053
1.268,2053
1.272,2052
1.276,2052
1.28,2051
1.284,2053
1.288,2052
1.292,2053
1.296,2052
1.3,2051
1.304,2051
1.308,2052
1.312,2051
1.316,2052
1.32,2051
1.324,2052
1.328,2053
1.332,2052
1.336,2051
1.34,2048
1.344,2051
1.348,2049
1.352,2051
1.356,2051
1.36,2051
1.364,2055
1.368,2056
1.372,2056
1.376,2057
1.38,2053
1.384,2051
1.388,2050
1.392,2049
1.396,2049
1.4,2050
1.404,2052
1.408,2056
1.412,2057
1.416,2049
1.42,2028
1.424,1998
1.428,1989
1.432,2089
1.436,2236
1.44,2397
1.444,2672
1.448,2903
1.452,2867
1.456,2825
1.46,2805
1.464,2692
1.468,2511
1.472,2375
1.476,2287
1.48,2182
1.484,2091
1.488,2031
1.492,2004
1.496,1992
1.5,1991
1.504,1992
1.508,1982
1.512,1978
1.516,1979
1.52,1976
1.524,1970
1.528,1965
1.532,1968
1.536,1965
1.54,1960
1.544,1955
1.548,1957
1.552,1956
1.556,1950
1.56,1946
1.564,1950
1.568,1946
1.572,1944
1.576,1944
1.58,1941
1.584,1940
1.588,1936
1.592,1932
1.596,1932
1.6,1929
1.604,1931
1.608,1930
1.612,1933
1.616,1931
1.62,1928
1.624,1928
1.628,1932
1.632,1934
1.636,1935
1.64,1936
1.644,1937
1.648,1938
1.652,1943
1.656,1945
1.66,1953
1.664,1958
1.668,1970
1.672,1981
1.676,1995
1.68,2004
1.684,2016
1.688,2019
1.692,2021
1.696,2029
1.7,2031
1.704,2030
1.708,2032
1.712,2032
1.716,2032
1.72,2032
1.724,2031
1.728,2032
1.732,2029
1.736,2032
1.74,2032
1.744,2034
1.748,2036
1.752,2034
1.756,2034
1.76,2039
1.764,2042
1.768,2044
1.772,2038
1.776,2035
1.78,2028
1.784,2031
1.788,2027
1.792,2023
1.796,2022
1.8,2023
1.804,2020
1.808,2020
1.812,2016
1.816,2017
1.82,2012
1.824,2012
1.828,2006
1.832,2008
1.836,2006
1.84,2002
1.844,2000
1.848,2002
1.852,2000
1.856,2001
1.86,2000
1.864,2001
1.868,2006
1.872,2008
1.876,2009
1.88,2006
1.884,2010
1.888,2012
1.892,2016
1.896,2019
1.9,2019
1.904,2019
1.908,2016
1.912,2018
1.916,2017
1.92,2017
1.924,2017
1.928,2016
1.932,2015
1.936,2017
1.94,2017
1.944,2015
1.948,2016
1.952,2016
1.956,2015
1.96,2018
1.964,2018
1.968,2018
1.972,2019
1.976,2018
1.98,2003
1.984,1975
1.988,1951
1.992,2014
1.996,2168
2,2330
2.004,2580
2.008,2869
2.012,2869
2.016,2748
2.02,2741
2.024,2656
2.028,2485
2.032,2341
2.036,2256
2.04,2163
2.044,2072
2.048,2008
2.052,1987
2.056,1977
2.06,1974
2.064,1969
2.068,1964
2.072,1960
2.076,1960
2.08,1956
2.084,1948
2.088,1948
2.092,1949
2.096,1949
2.1,1946
2.104,1946
2.108,1947
2.112,1946
2.116,1946
2.12,1938
2.124,1933
2.128,1935
2.132,1937
2.136,1936
2.14,1934
2.144,1932
2.148,1933
2.152,1933
2.156,1933
2.16,1933
2.164,1931
2.168,1926
2.172,1926
2.176,1925
2.18,1919
2.184,1916
2.188,1916
2.192,1917
2.196,1913
2.2,1915
2.204,1915
2.208,1916
2.212,1916
2.216,1918
2.22,1925
2.224,1934
2.228,1951
2.232,1966
2.236,1978
2.24,1987
2.244,1997
2.248,2004
2.252,2012
2.256,2014
2.26,2020
2.264,2026
2.268,2028
2.272,2029
2.276,2028
2.28,2030
2.284,2037
2.288,2041
2.292,2039
2.296,2040
2.3,2038
2.304,2040
2.308,2037
2.312,2035
2.316,2036
2.32,2035
2.324,2030
2.328,2031
2.332,2034
2.336,2033
2.34,2030
2.344,2031
2.348,2029
2.352,2024
2.356,2023
2.36,2027
2.364,2022
2.368,2026
2.372,2022
2.376,2024
2.38,2023
2.384,2020
2.388,2020
2.392,2020
2.396,2018
2.4,2021
2.404,2027
2.408,2024
2.412,2027
2.416,2030
2.42,2031
2.424,2033
2.428,2030
2.432,2033
2.436,2030
2.44,2029
2.444,2030
2.448,2028
2.452,2031
2.456,2028
2.46,2032
2.464,2033
2.468,2035
2.472,2036
2.476,2032
2.48,2033
2.484,2036
2.488,2035
2.492,2036
2.496,2038
2.5,2033
2.504,2035
2.508,2040
2.512,2036
2.516,2035
2.52,2035
2.524,2034
2.528,2028
2.532,2024
2.536,2024
2.54,2031
2.544,2032
2.548,2034
2.552,2031
2.556,2028
2.56,2025
2.564,2028
2.568,2030
2.572,2031
2.576,2030
2.58,2032
2.584,2035
2.588,2032
2.592,2033
2.596,2035
2.6,2035
2.604,2035
2.608,2036
2.612,2040
2.616,2037
2.62,2038
2.624,2037
2.628,2033
2.632,2031
2.636,2018
2.64,1984
2.644,1961
2.648,2020
2.652,2169
2.656,2323
2.66,2567
2.664,2842
2.668,2884
2.672,2778
2.676,2790
2.68,2715
2.684,2546
2.688,2389
2.692,2292
2.696,2202
2.7,2110
2.704,2048
2.708,2009
2.712,1998
2.716,1991
2.72,1988
2.724,1987
2.728,1977
2.732,1977
2.736,1978
2.74,1977
2.744,1974
2.748,1974
2.752,1977
2.756,1975
2.76,1969
2.764,1969
2.768,1968
2.772,1965
2.776,1957
2.78,1953
2.784,1950
2.788,1952
2.792,1948
2.796,1948
2.8,1950
2.804,1948
2.808,1950
2.812,1950
2.816,1945
2.82,1945
2.824,1948
2.828,1948
2.832,1949
2.836,1948
2.84,1943
2.844,1937
2.848,1936
2.852,1937
2.856,1936
2.86,1937
2.864,1943
2.868,1951
2.872,1953
2.876,1956
2.88,1966
2.884,1975
2.888,1986
2.892,1994
2.896,2006
2.9,2016
2.904,2021
2.908,2029
2.912,2039
2.916,2041
2.92,2045
2.924,2045
2.928,2050
2.932,2056
2.936,2054
2.94,2054
2.944,2059
2.948,2062
2.952,2060
2.956,2056
2.96,2058
2.964,2059
2.968,2067
2.972,2080
2.976,2097
2.98,2130
2.984,2164
2.988,2200
2.992,2240
2.996,2272
3,2325
3.004,2405
3.008,2470
3.012,2535
3.016,2600
3.02,2633
3.024,2709
3.028,2824
3.032,2948
3.036,3061
3.04,3167
3.044,3219
3.048,3220
3.052,3108
3.056,2929
3.06,2655
3.064,2370
3.068,2138
3.072,2002
3.076,1972
3.08,1962
3.084,1955
3.088,1941
3.092,1926
3.096,1925
3.1,1931
3.104,1926
3.108,1920
3.112,1914
3.116,1910
3.12,1902
3.124,1893
3.128,1888
3.132,1886
3.136,1881
3.14,1873
3.144,1870
3.148,1864
3.152,1847
3.156,1839
3.16,1827
3.164,1826
3.168,1820
3.172,1807
3.176,1797
3.18,1789
3.184,1781
3.188,1778
3.192,1769
3.196,1768
3.2,1763
3.204,1763
3.208,1761
3.212,1762
3.216,1765
3.22,1768
3.224,1779
3.228,1789
3.232,1810
3.236,1828
3.24,1846
3.244,1865
3.248,1888
3.252,1911
3.256,1931
3.26,1957
3.264,1978
3.268,1997
3.272,2010
3.276,2024
3.28,2035
3.284,2039
3.288,2044
3.292,2049
3.296,2057
3.3,2058
3.304,2058
3.308,2062
3.312,2063
3.316,2065
3.32,2068
3.324,2070
3.328,2073
3.332,2074
3.336,2072
3.34,2073
3.344,2074
3.348,2074
3.352,2073
3.356,2073
3.36,2075
3.364,2073
3.368,2074
3.372,2075
3.376,2073
3.38,2069
3.384,2069
3.388,2066
3.392,2060
3.396,2060
3.4,2063
3.404,2066
3.408,2063
3.412,2063
3.416,2066
3.42,2066
3.424,2066
3.428,2069
3.432,2071
3.436,2072
3.44,2077
3.444,2077
3.448,2077
3.452,2076
3.456,2079
3.46,2079
3.464,2081
3.468,2080
3.472,2080
3.476,2079
3.48,2080
3.484,2078
3.488,2081
3.492,2081
3.496,2081
3.5,2081
3.504,2080
3.508,2083
3.512,2078
3.516,2071
3.52,2047
3.524,2018
3.528,2036
3.532,2156
3.536,2304
3.54,2493
3.544,2793
3.548,2951
3.552,2834
3.556,2819
3.56,2783
3.564,2636
3.568,2456
3.572,2353
3.576,2267
3.58,2164
3.584,2085
3.588,2040
3.592,2033
3.596,2022
3.6,2016
3.604,2016
3.608,2009
3.612,2007
3.616,2006
3.62,2003
3.624,1998
3.628,1997
3.632,1998
3.636,1998
3.64,1998
3.644,1996
3.648,1994
3.652,1991
3.656,1989
3.66,1986
3.664,1985
3.668,1986
3.672,1981
3.676,1979
3.68,1978
3.684,1975
3.688,1974
3.692,1972
3.696,1971
3.7,1964
3.704,1959
3.708,1960
3.712,1962
3.716,1966
3.72,1965
3.724,1963
3.728,1959
3.732,1958
3.736,1959
3.74,1964
3.744,1963
3.748,1967
3.752,1970
3.756,1980
3.76,1991
3.764,2001
3.768,2012
3.772,2021
3.776,2027
3.78,2039
3.784,2040
3.788,2042
3.792,2046
3.796,2050
3.8,2051
3.804,2049
3.808,2050
3.812,2049
3.816,2048
3.82,2048
3.824,2047
3.828,2050
3.832,2048
3.836,2053
3.84,2056
3.844,2053
3.848,2051
3.852,2053
3.856,2052
3.86,2047
3.864,2050
3.868,2049
3.872,2048
3.876,2049
3.88,2048
3.884,2046
3.888,2043
3.892,2040
3.896,2034
3.9,2032
3.904,2033
3.908,2029
3.912,2026
3.916,2019
3.92,2019
3.924,2015
3.928,2014
3.932,2013
3.936,2013
3.94,2013
3.944,2011
3.948,2006
3.952,2004
3.956,2006
3.96,2011
3.964,2016
3.968,2017
3.972,2014
3.976,2012
3.98,2009
3.984,2007
3.988,2006
3.992,2004
3.996,2005
4,2005
4.004,2002
4.008,2005
4.012,2003
4.016,2004
4.02,2003
4.024,2002
4.028,2001
4.032,2001
4.036,2001
4.04,1997
4.044,2003
4.048,1999
4.052,2000
4.056,1998
4.06,1996
4.064,1995
4.068,1996
4.072,1998
4.076,1996
4.08,1991
4.084,1991
4.088,1991
4.092,1995
4.096,1998
4.1,1999
4.104,1999
4.108,1997
4.112,1986
4.116,1959
4.12,1925
4.124,1956
4.128,2090
4.132,2228
4.136,2418
4.14,2728
4.144,2863
4.148,2748
4.152,2747
4.156,2687
4.16,2521
4.164,2358
4.168,2260
4.172,2173
4.176,2070
4.18,1987
4.184,1943
4.188,1934
4.192,1927
4.196,1923
4.2,1919
4.204,1914
4.208,1907
4.212,1910
4.216,1908
4.22,1906
4.224,1906
4.228,1899
4.232,1895
4.236,1887
4.24,1887
4.244,1883
4.248,1884
4.252,1883
4.256,1883
4.26,1880
4.264,1877
4.268,1872
4.272,1871
4.276,1868
4.28,1866
4.284,1868
4.288,1867
4.292,1870
4.296,1867
4.3,1864
4.304,1860
4.308,1857
4.312,1858
4.316,1854
4.32,1850
4.324,1852
4.328,1854
4.332,1851
4.336,1854
4.34,1859
4.344,1860
4.348,1864
4.352,1870
4.356,1877
4.36,1886
4.364,1896
4.368,1910
4.372,1921
4.376,1929
4.38,1938
4.384,1941
4.388,1944
4.392,1950
4.396,1951
4.4,1951
4.404,1952
4.408,1955
4.412,1953
4.416,1956
4.42,1953
4.424,1953
4.428,1955
4.432,1953
4.436,1954
4.44,1952
4.444,1950
4.448,1949
4.452,1950
4.456,1954
4.46,1955
4.464,1953
4.468,1947
4.472,1944
4.476,1941
4.48,1937
4.484,1934
4.488,1934
4.492,1936
4.496,1933
4.5,1936
4.504,1933
4.508,1928
4.512,1928
4.516,1929
4.52,1927
4.524,1922
4.528,1925
4.532,1923
4.536,1922
4.54,1923
4.544,1920
4.548,1919
4.552,1921
4.556,1923
4.56,1927
4.564,1929
4.568,1928
4.572,1930
4.576,1930
4.58,1933
4.584,1932
4.588,1933
4.592,1935
4.596,1939
4.6,1940
4.604,1941
4.608,1940
4.612,1938
4.616,1937
4.62,1937
4.624,1933
4.628,1937
4.632,1930
4.636,1930
4.64,1934
4.644,1933
4.648,1932
4.652,1933
4.656,1930
4.66,1933
4.664,1931
4.668,1929
4.672,1930
4.676,1930
4.68,1926
4.684,1924
4.688,1925
4.692,1923
4.696,1922
4.7,1923
4.704,1921
4.708,1920
4.712,1922
4.716,1927
4.72,1931
4.724,1920
4.728,1885
4.732,1867
4.736,1948
4.74,2111
4.744,2269
4.748,2548
4.752,2802
4.756,2775
4.76,2695
4.764,2680
4.768,2573
4.772,2400
4.776,2260
4.78,2166
4.784,2078
4.788,1990
4.792,1932
4.796,1905
4.8,1898
4.804,1895
4.808,1887
4.812,1876
4.816,1872
4.82,1874
4.824,1865
4.828,1858
4.832,1853
4.836,1858
4.84,1858
4.844,1857
4.848,1856
4.852,1862
4.856,1858
4.86,1856
4.864,1855
4.868,1856
4.872,1854
4.876,1850
4.88,1853
4.884,1849
4.888,1846
4.892,1845
4.896,1839
4.9,1841
4.904,1839
4.908,1834
4.912,1834
4.916,1835
4.92,1832
4.924,1828
4.928,1827
4.932,1827
4.936,1826
4.94,1828
4.944,1827
4.948,1829
4.952,1835
4.956,1843
4.96,1848
4.964,1858
4.968,1864
4.972,1877
4.976,1888
4.98,1897
4.984,1907
4.988,1916
4.992,1925
4.996,1931
5,1941
5.004,1946
5.008,1946
5.012,1950
5.016,1953
5.02,1950
5.024,1945
5.028,1943
5.032,1947
5.036,1944
5.04,1946
5.044,1949
5.048,1952
5.052,1953
5.056,1959
5.06,1969
5.064,1968
5.068,1968
5.072,1968
5.076,1971
5.08,1978
5.084,1981
5.088,2003
5.092,2093
5.096,2268
5.1,2444
5.104,2701
5.108,2894
5.112,2886
5.116,2872
5.12,2826
5.124,2664
5.128,2437
5.132,2285
5.136,2160
5.14,2035
5.144,1964
5.148,1936
5.152,1930
5.156,1918
5.16,1911
5.164,1911
5.168,1905
5.172,1899
5.176,1901
5.18,1899
5.184,1901
5.188,1892
5.192,1894
5.196,1893
5.2,1891
5.204,1885
5.208,1884
5.212,1881
5.216,1880
5.22,1876
5.224,1876
5.228,1876
5.232,1876
5.236,1871
5.24,1869
5.244,1869
5.248,1862
5.252,1860
5.256,1858
5.26,1855
5.264,1850
5.268,1847
5.272,1840
5.276,1837
5.28,1836
5.284,1837
5.288,1837
5.292,1840
5.296,1846
5.3,1853
5.304,1859
5.308,1869
5.312,1881
5.316,1894
5.32,1907
5.324,1914
5.328,1931
5.332,1941
5.336,1952
5.34,1958
5.344,1965
5.348,1974
5.352,1971
5.356,1974
5.36,1976
5.364,1976
5.368,1981
5.372,1982
5.376,1986
5.38,1987
5.384,1989
5.388,1991
5.392,1989
5.396,1988
5.4,1985
5.404,1986
5.408,1986
5.412,1985
5.416,1987
5.42,1990
5.424,1994
5.428,1995
5.432,2000
5.436,2000
5.44,2003
5.444,2004
5.448,2005
5.452,2006
5.456,2007
5.46,2008
5.464,2007
5.468,2006
5.472,2004
5.476,2004
5.48,2004
5.484,2004
5.488,2004
5.492,2004
5.496,2001
5.5,2002
5.504,2003
5.508,2001
5.512,2004
5.516,2004
5.52,2003
5.524,2004
5.528,2004
5.532,2005
5.536,2011
5.54,2011
5.544,2011
5.548,2012
5.552,2012
5.556,2015
5.56,2020
5.564,2015
5.568,2001
5.572,1974
5.576,1960
5.58,2032
5.584,2187
5.588,2355
5.592,2622
5.596,2876
5.6,2834
5.604,2724
5.608,2717
5.612,2626
5.616,2447
5.62,2311
5.624,2229
5.628,2149
5.632,2063
5.636,2011
5.64,1992
5.644,1984
5.648,1981
5.652,1978
5.656,1971
5.66,1963
5.664,1967
5.668,1964
5.672,1960
5.676,1960
5.68,1960
5.684,1957
5.688,1957
5.692,1957
5.696,1962
5.7,1962
5.704,1958
5.708,1957
5.712,1954
5.716,1955
5.72,1951
5.724,1950
5.728,1948
5.732,1942
5.736,1936
5.74,1933
5.744,1933
5.748,1931
5.752,1928
5.756,1927
5.76,1928
5.764,1927
5.768,1925
5.772,1925
5.776,1925
5.78,1927
5.784,1925
5.788,1927
5.792,1927
5.796,1936
5.8,1946
5.804,1953
5.808,1962
5.812,1976
5.816,1996
5.82,2009
5.824,2017
5.828,2025
5.832,2038
5.836,2040
5.84,2048
5.844,2054
5.848,2056
5.852,2058
5.856,2056
5.86,2060
5.864,2064
5.868,2064
5.872,2063
5.876,2065
5.88,2069
5.884,2068
5.888,2066
5.892,2066
5.896,2063
5.9,2060
5.904,2060
5.908,2059
5.912,2059
5.916,2058
5.92,2060
5.924,2059
5.928,2059
5.932,2057
5.936,2055
5.94,2054
5.944,2054
5.948,2052
5.952,2054
5.956,2053
5.96,2054
5.964,2054
5.968,2057
5.972,2054
5.976,2050
5.98,2050
5.984,2045
5.988,2044
5.992,2045
5.996,2047
6,2048
6.004,2054
6.008,2055
6.012,2059
6.016,2058
6.02,2057
6.024,2057
6.028,2056
6.032,2054
6.036,2053
6.04,2054
6.044,2055
6.048,2056
6.052,2056
6.056,2056
6.06,2052
6.064,2047
6.068,2046
6.072,2050
6.076,2056
6.08,2062
6.084,2061
6.088,2060
6.092,2059
6.096,2060
6.1,2058
6.104,2060
6.108,2060
6.112,2057
6.116,2055
6.12,2057
6.124,2056
6.128,2057
6.132,2060
6.136,2062
6.14,2062
6.144,2059
6.148,2039
6.152,2003
6.156,1978
6.16,2053
6.164,2197
6.168,2346
6.172,2607
6.176,2874
6.18,2909
6.184,2864
6.188,2855
6.192,2757
6.196,2573
6.2,2425
6.204,2335
6.208,2233
6.212,2138
6.216,2069
6.22,2036
6.224,2024
6.228,2020
6.232,2019
6.236,2010
6.24,2005
6.244,2006
6.248,2005
6.252,1998
6.256,1995
6.26,1996
6.264,1998
6.268,1989
6.272,1986
6.276,1989
6.28,1987
6.284,1984
6.288,1985
6.292,1985
6.296,1984
6.3,1981
6.304,1977
6.308,1977
6.312,1975
6.316,1970
6.32,1973
6.324,1974
6.328,1979
6.332,1974
6.336,1973
6.34,1970
6.344,1968
6.348,1963
6.352,1959
6.356,1958
6.36,1957
6.364,1958
6.368,1960
6.372,1964
6.376,1969
6.38,1974
6.384,1983
6.388,1989
6.392,2002
6.396,2011
6.4,2026
6.404,2041
6.408,2050
6.412,2059
6.416,2066
6.42,2070
6.424,2073
6.428,2076
6.432,2075
6.436,2075
6.44,2072
6.444,2074
6.448,2075
6.452,2083
6.456,2086
6.46,2085
6.464,2085
6.468,2080
6.472,2081
6.476,2078
6.48,2076
6.484,2079
6.488,2078
6.492,2078
6.496,2078
6.5,2077
6.504,2077
6.508,2077
6.512,2079
6.516,2074
6.52,2072
6.524,2071
6.528,2068
6.532,2067
6.536,2067
6.54,2063
6.544,2064
6.548,2061
6.552,2059
6.556,2055
6.56,2050
6.564,2050
6.568,2046
6.572,2048
6.576,2048
6.58,2060
6.584,2063
6.588,2062
6.592,2061
6.596,2062
6.6,2064
6.604,2064
6.608,2065
6.612,2060
6.616,2048
6.62,2016
6.624,2035
6.628,2157
6.632,2301
6.636,2482
6.64,2781
6.644,2942
6.648,2903
6.652,2903
6.656,2848
6.66,2668
6.664,2487
6.668,2372
6.672,2275
6.676,2168
6.68,2079
6.684,2043
6.688,2030
6.692,2018
6.696,2017
6.7,2013
6.704,2009
6.708,2005
6.712,2005
6.716,2005
6.72,2002
6.724,1994
6.728,1995
6.732,1990
6.736,1985
6.74,1985
6.744,1987
6.748,1986
6.752,1987
6.756,1985
6.76,1986
6.764,1985
6.768,1980
6.772,1979
6.776,1979
6.78,1975
6.784,1971
6.788,1974
6.792,1970
6.796,1967
6.8,1959
6.804,1958
6.808,1954
6.812,1945
6.816,1941
6.82,1943
6.824,1945
6.828,1949
6.832,1950
6.836,1949
6.84,1953
6.844,1956
6.848,1963
6.852,1975
6.856,1983
6.86,1994
6.864,2007
6.868,2022
6.872,2031
6.876,2038
6.88,2048
6.884,2060
6.888,2063
6.892,2067
6.896,2070
6.9,2075
6.904,2072
6.908,2074
6.912,2074
6.916,2075
6.92,2077
6.924,2073
6.928,2073
6.932,2072
6.936,2067
6.94,2064
6.944,2062
6.948,2059
6.952,2065
6.956,2070
6.96,2072
6.964,2067
6.968,2066
6.972,2062
6.976,2058
6.98,2057
6.984,2054
6.988,2055
6.992,2053
6.996,2053
7,2054
7.004,2054
7.008,2056
7.012,2057
7.016,2057
7.02,2056
7.024,2057
7.028,2056
7.032,2056
7.036,2057
7.04,2060
7.044,2060
7.048,2059
7.052,2059
7.056,2058
7.06,2058
7.064,2055
7.068,2057
7.072,2060
7.076,2061
7.08,2067
7.084,2064
7.088,2064
7.092,2063
7.096,2063
7.1,2065
7.104,2062
7.108,2060
7.112,2065
7.116,2063
7.12,2063
7.124,2062
7.128,2062
7.132,2063
7.136,2061
7.14,2054
7.144,2031
7.148,1998
7.152,2001
7.156,2105
7.16,2256
7.164,2418
7.168,2723
7.172,2923
7.176,2852
7.18,2845
7.184,2804
7.188,2664
7.192,2486
7.196,2376
7.2,2294
7.204,2195
7.208,2100
7.212,2046
7.216,2027
7.22,2013
7.224,2006
7.228,2004
7.232,1998
7.236,1992
7.24,1989
7.244,1994
7.248,1990
7.252,1987
7.256,1985
7.26,1986
7.264,1984
7.268,1979
7.272,1983
7.276,1980
7.28,1976
7.284,1973
7.288,1971
7.292,1967
7.296,1964
7.3,1967
7.304,1965
7.308,1965
7.312,1965
7.316,1963
7.32,1964
7.324,1967
7.328,1962
7.332,1962
7.336,1959
7.34,1957
7.344,1953
7.348,1952
7.352,1949
7.356,1951
7.36,1952
7.364,1952
7.368,1955
7.372,1962
7.376,1969
7.38,1975
7.384,1987
7.388,2001
7.392,2011
7.396,2014
7.4,2028
7.404,2036
7.408,2043
7.412,2045
7.416,2052
7.42,2053
7.424,2056
7.428,2052
7.432,2051
7.436,2050
7.44,2053
7.444,2059
7.448,2068
7.452,2068
7.456,2065
7.46,2066
7.464,2065
7.468,2063
7.472,2061
7.476,2055
7.48,2056
7.484,2058
7.488,2057
7.492,2058
7.496,2057
7.5,2056
7.504,2056
7.508,2055
7.512,2051
7.516,2049
7.52,2052
7.524,2049
7.528,2046
7.532,2045
7.536,2045
7.54,2041
7.544,2043
7.548,2039
7.552,2038
7.556,2039
7.56,2040
7.564,2037
7.568,2035
7.572,2038
7.576,2043
7.58,2050
7.584,2048
7.588,2050
7.592,2051
7.596,2050
7.6,2051
7.604,2050
7.608,2049
7.612,2050
7.616,2052
7.62,2050
7.624,2053
7.628,2056
7.632,2054
7.636,2056
7.64,2052
7.644,2051
7.648,2050
7.652,2051
7.656,2050
7.66,2046
7.664,2048
7.668,2044
7.672,2043
7.676,2042
7.68,2035
7.684,2031
7.688,2034
7.692,2036
7.696,2049
7.7,2051
7.704,2052
7.708,2050
7.712,2050
7.716,2056
7.72,2054
7.724,2056
7.728,2053
7.732,2051
7.736,2053
7.74,2054
7.744,2051
7.748,2048
7.752,2049
7.756,2051
7.76,2049
7.764,2051
7.768,2050
7.772,2053
7.776,2053
7.78,2052
7.784,2051
7.788,2051
7.792,2050
7.796,2049
7.8,2047
7.804,2044
7.808,2044
7.812,2033
7.816,2031
7.82,2039
7.824,2047
7.828,2051
7.832,2049
7.836,2051
7.84,2049
7.844,2047
7.848,2048
7.852,2048
7.856,2057
7.86,2034
7.864,1998
7.868,2002
7.872,2103
7.876,2256
7.88,2434
7.884,2722
7.888,2945
7.892,2868
7.896,2829
7.9,2800
7.904,2677
7.908,2501
7.912,2371
7.916,2281
7.92,2184
7.924,2101
7.928,2045
7.932,2020
7.936,2010
7.94,2005
7.944,1999
7.948,1994
7.952,1995
7.956,1994
7.96,1998
7.964,1990
7.968,1982
7.972,1987
7.976,1984
7.98,1978
7.984,1975
7.988,1975
7.992,1974
7.996,1968
8,1970
8.004,1971
8.008,1971
8.012,1969
8.016,1968
8.02,1967
8.024,1966
8.028,1960
8.032,1962
8.036,1960
8.04,1958
8.044,1955
8.048,1956
8.052,1953
8.056,1951
8.06,1947
8.064,1942
8.068,1941
8.072,1946
8.076,1948
8.08,1952
8.084,1952
8.088,1960
8.092,1959
8.096,1959
8.1,1966
8.104,1973
8.108,1989
8.112,2006
8.116,2013
8.12,2029
8.124,2041
8.128,2045
8.132,2052
8.136,2052
8.14,2060
8.144,2063
8.148,2065
8.152,2066
8.156,2069
8.16,2068
8.164,2069
8.168,2068
8.172,2067
8.176,2070
8.18,2066
8.184,2067
8.188,2062
8.192,2060
8.196,2061
8.2,2065
8.204,2063
8.208,2063
8.212,2062
8.216,2059
8.22,2051
8.224,2050
8.228,2047
8.232,2050
8.236,2052
8.24,2053
8.244,2054
8.248,2051
8.252,2054
8.256,2052
8.26,2056
8.264,2051
8.268,2053
8.272,2052
8.276,2053
8.28,2048
8.284,2050
8.288,2050
8.292,2049
8.296,2050
8.3,2046
8.304,2042
8.308,2045
8.312,2042
8.316,2023
8.32,2001
8.324,2013
8.328,2116
8.332,2278
8.336,2445
8.34,2746
8.344,2907
8.348,2774
8.352,2746
8.356,2719
8.36,2570
8.364,2417
8.368,2302
8.372,2222
8.376,2134
8.38,2060
8.384,2031
8.388,2019
8.392,2014
8.396,2009
8.4,2006
8.404,2002
8.408,2000
8.412,2001
8.416,2000
8.42,1990
8.424,1990
8.428,1988
8.432,1985
8.436,1982
8.44,1978
8.444,1976
8.448,1974
8.452,1976
8.456,1974
8.46,1976
8.464,1975
8.468,1977
8.472,1975
8.476,1975
8.48,1972
8.484,1972
8.488,1968
8.492,1971
8.496,1969
8.5,1969
8.504,1963
8.508,1966
8.512,1965
8.516,1964
8.52,1961
8.524,1962
8.528,1959
8.532,1961
8.536,1963
8.54,1967
8.544,1971
8.548,1977
8.552,1984
8.556,1993
8.56,2002
8.564,2006
8.568,2015
8.572,2030
8.576,2040
8.58,2045
8.584,2049
8.588,2057
8.592,2062
8.596,2062
8.6,2066
8.604,2069
8.608,2072
8.612,2071
8.616,2073
8.62,2078
8.624,2080
8.628,2081
8.632,2083
8.636,2084
8.64,2086
8.644,2087
8.648,2084
8.652,2086
8.656,2086
8.66,2082
8.664,2086
8.668,2086
8.672,2085
8.676,2086
8.68,2085
8.684,2082
8.688,2079
8.692,2075
8.696,2071
8.7,2076
8.704,2079
8.708,2081
8.712,2083
8.716,2083
8.72,2082
8.724,2083
8.728,2085
8.732,2089
8.736,2088
8.74,2092
8.744,2095
8.748,2099
8.752,2096
8.756,2100
8.76,2104
8.764,2104
8.768,2103
8.772,2104
8.776,2105
8.78,2111
8.784,2115
8.788,2115
8.792,2115
8.796,2113
8.8,2112
8.804,2109
8.808,2111
8.812,2109
8.816,2110
8.82,2112
8.824,2112
8.828,2115
8.832,2120
8.836,2122
8.84,2120
8.844,2122
8.848,2119
8.852,2122
8.856,2121
8.86,2123
8.864,2120
8.868,2126
8.872,2125
8.876,2130
8.88,2128
8.884,2129
8.888,2130
8.892,2121
8.896,2100
8.9,2065
8.904,2067
8.908,2175
8.912,2319
8.916,2485
8.92,2793
8.924,3005
8.928,2945
8.932,2941
8.936,2911
8.94,2770
8.944,2585
8.948,2465
8.952,2377
8.956,2270
8.96,2171
8.964,2120
8.968,2105
8.972,2093
8.976,2090
8.98,2087
8.984,2080
8.988,2073
8.992,2069
8.996,2074
9,2075
9.004,2070
9.008,2074
9.012,2070
9.016,2068
9.02,2069
9.024,2068
9.028,2068
9.032,2067
9.036,2065
9.04,2060
9.044,2055
9.048,2052
9.052,2051
9.056,2053
9.06,2054
9.064,2049
9.068,2044
9.072,2045
9.076,2050
9.08,2051
9.084,2052
9.088,2049
9.092,2048
9.096,2041
9.1,2039
9.104,2039
9.108,2039
9.112,2041
9.116,2038
9.12,2044
9.124,2044
9.128,2053
9.132,2064
9.136,2074
9.14,2087
9.144,2098
9.148,2106
9.152,2119
9.156,2124
9.16,2131
9.164,2136
9.168,2139
9.172,2143
9.176,2147
9.18,2148
9.184,2151
9.188,2155
9.192,2150
9.196,2154
9.2,2154
9.204,2161
9.208,2165
9.212,2165
9.216,2164
9.22,2163
9.224,2162
9.228,2162
9.232,2159
9.236,2158
9.24,2158
9.244,2153
9.248,2148
9.252,2144
9.256,2141
9.26,2142
9.264,2139
9.268,2122
9.272,2102
9.276,2121
9.28,2232
9.284,2385
9.288,2607
9.292,2880
9.296,3007
9.3,2995
9.304,3015
9.308,2918
9.312,2712
9.316,2525
9.32,2402
9.324,2284
9.328,2181
9.332,2127
9.336,2110
9.34,2100
9.344,2092
9.348,2082
9.352,2073
9.356,2071
9.36,2066
9.364,2060
9.368,2059
9.372,2059
9.376,2059
9.38,2055
9.384,2055
9.388,2053
9.392,2050
9.396,2049
9.4,2047
9.404,2043
9.408,2042
9.412,2039
9.416,2035
9.42,2033
9.424,2029
9.428,2028
9.432,2025
9.436,2022
9.44,2017
9.444,2015
9.448,2015
9.452,2015
9.456,2016
9.46,2015
9.464,2011
9.468,2012
9.472,2006
9.476,2004
9.48,2008
9.484,2011
9.488,2016
9.492,2021
9.496,2027
9.5,2039
9.504,2049
9.508,2063
9.512,2074
9.516,2083
9.52,2086
9.524,2094
9.528,2097
9.532,2100
9.536,2101
9.54,2104
9.544,2105
9.548,2106
9.552,2104
9.556,2104
9.56,2101
9.564,2101
9.568,2099
9.572,2099
9.576,2104
9.58,2107
9.584,2110
9.588,2108
9.592,2108
9.596,2105
9.6,2102
9.604,2102
9.608,2098
9.612,2099
9.616,2098
9.62,2099
9.624,2099
9.628,2102
9.632,2102
9.636,2104
9.64,2103
9.644,2100
9.648,2099
9.652,2095
9.656,2094
9.66,2094
9.664,2090
9.668,2091
9.672,2091
9.676,2090
9.68,2086
9.684,2090
9.688,2086
9.692,2085
9.696,2086
9.7,2088
9.704,2086
9.708,2094
9.712,2090
9.716,2086
9.72,2081
9.724,2079
9.728,2080
9.732,2076
9.736,2075
9.74,2077
9.744,2078
9.748,2078
9.752,2080
9.756,2085
9.76,2084
9.764,2082
9.768,2081
9.772,2083
9.776,2081
9.78,2080
9.784,2079
9.788,2078
9.792,2077
9.796,2077
9.8,2075
9.804,2076
9.808,2074
9.812,2076
9.816,2073
9.82,2068
9.824,2069
9.828,2071
9.832,2073
9.836,2076
9.84,2076
9.844,2070
9.848,2046
9.852,2009
9.856,2014
9.86,2134
9.864,2279
9.868,2454
9.872,2751
9.876,2941
9.88,2846
9.884,2832
9.888,2790
9.892,2659
9.896,2482
9.9,2366
9.904,2285
9.908,2182
9.912,2096
9.916,2044
9.92,2031
9.924,2018
9.928,2011
9.932,2006
9.936,2001
9.94,1996
9.944,1989
9.948,1990
9.952,1989
9.956,1987
9.96,1988
9.964,1984
9.968,1983
9.972,1978
9.976,1975
9.98,1973
9.984,1967
9.988,1962
9.992,1966
9.996,1965
10,1961
10.004,1957
10.008,1957
10.012,1953
10.016,1949
10.02,1953
10.024,1951
10.028,1955
10.032,1951
10.036,1946
10.04,1941
10.044,1941
10.048,1939
10.052,1938
10.056,1935
10.06,1938
10.064,1936
10.068,1939
10.072,1939
10.076,1943
10.08,1950
10.084,1964
10.088,1975
10.092,1981
10.096,1989
10.1,1998
10.104,2007
10.108,2014
10.112,2020
10.116,2028
10.12,2034
10.124,2037
10.128,2037
10.132,2039
10.136,2043
10.14,2045
10.144,2043
10.148,2043
10.152,2044
10.156,2042
10.16,2041
10.164,2042
10.168,2041
10.172,2046
10.176,2046
10.18,2045
10.184,2041
10.188,2039
10.192,2040
10.196,2036
10.2,2034
10.204,2046
10.208,2076
10.212,2112
10.216,2140
10.22,2175
10.224,2209
10.228,2258
10.232,2315
10.236,2400
10.24,2460
10.244,2536
10.248,2609
10.252,2648
10.256,2719
10.26,2796
10.264,2877
10.268,2986
10.272,3088
10.276,3130
10.28,3093
10.284,2973
10.288,2776
10.292,2542
10.296,2317
10.3,2119
10.304,1975
10.308,1921
10.312,1909
10.316,1898
10.32,1889
10.324,1875
10.328,1872
10.332,1872
10.336,1870
10.34,1861
10.344,1852
10.348,1847
10.352,1843
10.356,1833
10.36,1825
10.364,1820
10.368,1819
10.372,1810
10.376,1804
10.38,1799
10.384,1794
10.388,1786
10.392,1776
10.396,1767
10.4,1757
10.404,1746
10.408,1734
10.412,1730
10.416,1722
10.42,1713
10.424,1699
10.428,1698
10.432,1694
10.436,1691
10.44,1688
10.444,1688
10.448,1688
10.452,1696
10.456,1709
10.46,1729
10.464,1750
10.468,1761
10.472,1781
10.476,1802
10.48,1826
10.484,1845
10.488,1872
10.492,1899
10.496,1918
10.5,1938
10.504,1948
10.508,1967
10.512,1977
10.516,1981
10.52,1988
10.524,1996
10.528,1998
10.532,1996
10.536,1998
10.54,1991
10.544,1992
10.548,1991
10.552,1987
10.556,1988
10.56,1987
10.564,1985
10.568,1984
10.572,1985
10.576,1983
10.58,1989
10.584,1991
10.588,1994
10.592,2000
10.596,1996
10.6,1995
10.604,1994
10.608,1992
10.612,1990
10.616,1992
10.62,1991
10.624,1994
10.628,1995
10.632,1996
10.636,1995
10.64,2000
10.644,1999
10.648,2004
10.652,2008
10.656,2008
10.66,2008
10.664,2007
10.668,2008
10.672,2002
10.676,1998
10.68,2002
10.684,2000
10.688,2001
10.692,1997
10.696,1996
10.7,1996
10.704,2000
10.708,2005
10.712,2012
10.716,2016
10.72,2016
10.724,2016
10.728,2019
10.732,2016
10.736,2019
10.74,2021
10.744,2020
10.748,2023
10.752,2024
10.756,2024
10.76,2024
10.764,2024
10.768,2027
10.772,2023
10.776,2027
10.78,2027
10.784,2025
10.788,2027
10.792,2039
10.796,2039
10.8,2035
10.804,2035
10.808,2030
10.812,2033
10.816,2028
10.82,2026
10.824,2020
10.828,2016
10.832,2020
10.836,2018
10.84,2025
10.844,2024
10.848,2025
10.852,2020
10.856,2022
10.86,2028
10.864,2032
10.868,2031
10.872,2031
10.876,2034
10.88,2036
10.884,2038
10.888,2036
10.892,2037
10.896,2036
10.9,2040
10.904,2040
10.908,2040
10.912,2042
10.916,2040
10.92,2040
10.924,2040
10.928,2040
10.932,2039
10.936,2040
10.94,2039
10.944,2037
10.948,2032
10.952,2032
10.956,2030
10.96,2035
10.964,2033
10.968,2035
10.972,2033
10.976,2025
10.98,2016
10.984,2025
10.988,2026
10.992,2025
10.996,2023
11,2029
11.004,2035
11.008,2034
11.012,2026
11.016,1993
11.02,1973
11.024,2018
11.028,2163
11.032,2329
11.036,2550
11.04,2851
11.044,2919
11.048,2764
11.052,2756
11.056,2691
11.06,2524
11.064,2371
11.068,2273
11.072,2187
11.076,2098
11.08,2028
11.084,2000
11.088,1985
11.092,1984
11.096,1983
11.1,1974
11.104,1966
11.108,1958
11.112,1959
11.116,1952
11.12,1943
11.124,1944
11.128,1948
11.132,1948
11.136,1938
11.14,1941
11.144,1948
11.148,1947
11.152,1946
11.156,1947
11.16,1950
11.164,1950
11.168,1945
11.172,1947
11.176,1945
11.18,1944
11.184,1947
11.188,1944
11.192,1944
11.196,1939
11.2,1936
11.204,1939
11.208,1936
11.212,1938
11.216,1936
11.22,1932
11.224,1931
11.228,1930
11.232,1926
11.236,1928
11.24,1931
11.244,1936
11.248,1935
11.252,1938
11.256,1943
11.26,1952
11.264,1960
11.268,1971
11.272,1985
11.276,1991
11.28,2004
11.284,2016
11.288,2019
11.292,2024
11.296,2026
11.3,2031
11.304,2033
11.308,2032
11.312,2031
11.316,2033
11.32,2032
11.324,2030
11.328,2030
11.332,2029
11.336,2028
11.34,2035
11.344,2032
11.348,2028
11.352,2030
11.356,2024
11.36,2022
11.364,2024
11.368,2025
11.372,2020
11.376,2021
11.38,2018
11.384,2008
11.388,2004
11.392,2003
11.396,2001
11.4,1999
11.404,1999
11.408,1996
11.412,1997
11.416,1994
11.42,1996
11.424,1998
11.428,1997
11.432,1996
11.436,1997
11.44,1995
11.444,2001
11.448,1998
11.452,2000
11.456,1997
11.46,2000
11.464,2003
11.468,2011
11.472,2013
11.476,2011
11.48,2009
11.484,2010
11.488,2009
11.492,2004
11.496,2007
11.5,2007
11.504,2007
11.508,2005
11.512,2007
11.516,2003
11.52,1998
11.524,1992
11.528,1988
11.532,1990
11.536,1991
11.54,1991
11.544,1995
11.548,1995
11.552,1997
11.556,2000
11.56,2003
11.564,2002
11.568,2007
11.572,2006
11.576,2004
11.58,2005
11.584,2007
11.588,2009
11.592,2012
11.596,2014
11.6,2009
11.604,2012
11.608,2009
11.612,2011
11.616,2007
11.62,2008
11.624,2008
11.628,2008
11.632,2007
11.636,2008
11.64,2004
11.644,2002
11.648,1999
11.652,1996
11.656,1979
11.66,1945
11.664,1928
11.668,2007
11.672,2156
11.676,2305
11.68,2583
11.684,2839
11.688,2825
11.692,2774
11.696,2771
11.7,2664
11.704,2476
11.708,2333
11.712,2247
11.716,2153
11.72,2061
11.724,1998
11.728,1974
11.732,1958
11.736,1959
11.74,1953
11.744,1946
11.748,1939
11.752,1940
11.756,1942
11.76,1935
11.764,1933
11.768,1935
11.772,1934
11.776,1929
11.78,1928
11.784,1924
11.788,1924
11.792,1913
11.796,1907
11.8,1904
11.804,1903
11.808,1899
11.812,1896
11.816,1897
11.82,1895
11.824,1889
11.828,1881
11.832,1885
11.836,1883
11.84,1887
11.844,1887
11.848,1887
11.852,1887
11.856,1883
11.86,1881
11.864,1879
11.868,1877
11.872,1876
11.876,1875
11.88,1876
11.884,1880
11.888,1885
11.892,1891
11.896,1900
11.9,1908
11.904,1916
11.908,1928
11.912,1941
11.916,1949
11.92,1957
11.924,1964
11.928,1972
11.932,1976
11.936,1974
11.94,1974
11.944,1975
11.948,1980
11.952,1979
11.956,1975
11.96,1979
11.964,1979
11.968,1981
11.972,1987
11.976,1981
11.98,1980
11.984,1979
11.988,1978
11.992,1979
11.996,1982
12,1983
12.004,1976
12.008,1968
12.012,1959
12.016,2000
12.02,2138
12.024,2292
12.028,2556
12.032,2787
12.036,2872
12.04,2883
12.044,2863
12.048,2740
12.052,2536
12.056,2359
12.06,2219
12.064,2077
12.068,1985
12.072,1952
12.076,1937
12.08,1925
12.084,1917
12.088,1916
12.092,1911
12.096,1908
12.1,1906
12.104,1901
12.108,1898
12.112,1894
12.116,1895
12.12,1890
12.124,1889
12.128,1887
12.132,1887
12.136,1887
12.14,1883
12.144,1884
12.148,1883
12.152,1884
12.156,1884
12.16,1879
12.164,1882
12.168,1881
12.172,1878
12.176,1878
12.18,1876
12.184,1868
12.188,1868
12.192,1868
12.196,1860
12.2,1854
12.204,1850
12.208,1853
12.212,1855
12.216,1855
12.22,1864
12.224,1868
12.228,1871
12.232,1872
12.236,1880
12.24,1894
12.244,1907
12.248,1916
12.252,1924
12.256,1937
12.26,1944
12.264,1950
12.268,1957
12.272,1965
12.276,1966
12.28,1965
12.284,1967
12.288,1964
12.292,1959
12.296,1953
12.3,1953
12.304,1955
12.308,1958
12.312,1951
12.316,1947
12.32,1950
12.324,1943
12.328,1942
12.332,1939
12.336,1942
12.34,1940
12.344,1942
12.348,1942
12.352,1943
12.356,1941
12.36,1935
12.364,1935
12.368,1935
12.372,1936
12.376,1939
12.38,1940
12.384,1941
12.388,1944
12.392,1945
12.396,1949
12.4,1954
12.404,1952
12.408,1953
12.412,1956
12.416,1956
12.42,1955
12.424,1954
12.428,1955
12.432,1950
12.436,1948
12.44,1948
12.444,1949
12.448,1950
12.452,1948
12.456,1948
12.46,1954
12.464,1954
12.468,1961
12.472,1960
12.476,1946
12.48,1918
12.484,1891
12.488,1929
12.492,2067
12.496,2204
12.5,2428
12.504,2711
12.508,2808
12.512,2715
12.516,2715
12.52,2646
12.524,2466
12.528,2312
12.532,2216
12.536,2127
12.54,2026
12.544,1949
12.548,1917
12.552,1906
12.556,1901
12.56,1898
12.564,1890
12.568,1885
12.572,1886
12.576,1878
12.58,1875
12.584,1875
12.588,1878
12.592,1878
12.596,1880
12.6,1878
12.604,1874
12.608,1877
12.612,1873
12.616,1868
12.62,1867
12.624,1865
12.628,1864
12.632,1864
12.636,1865
12.64,1863
12.644,1859
12.648,1856
12.652,1856
12.656,1857
12.66,1857
12.664,1852
12.668,1847
12.672,1845
12.676,1841
12.68,1836
12.684,1836
12.688,1835
12.692,1835
12.696,1840
12.7,1841
12.704,1841
12.708,1845
12.712,1852
12.716,1863
12.72,1880
12.724,1892
12.728,1899
12.732,1908
12.736,1915
12.74,1925
12.744,1929
12.748,1934
12.752,1938
12.756,1944
12.76,1943
12.764,1948
12.768,1955
12.772,1955
12.776,1959
12.78,1959
12.784,1962
12.788,1962
12.792,1965
12.796,1965
12.8,1965
12.804,1965
12.808,1965
12.812,1962
12.816,1965
12.82,1961
12.824,1955
12.828,1952
12.832,1947
12.836,1950
12.84,1951
12.844,1952
12.848,1957
12.852,1952
12.856,1949
12.86,1944
12.864,1943
12.868,1944
12.872,1945
12.876,1944
12.88,1949
12.884,1949
12.888,1950
12.892,1954
12.896,1954
12.9,1956
12.904,1953
12.908,1955
12.912,1956
12.916,1956
12.92,1952
12.924,1956
12.928,1953
12.932,1951
12.936,1953
12.94,1955
12.944,1955
12.948,1957
12.952,1957
12.956,1953
12.96,1951
12.964,1953
12.968,1956
12.972,1959
12.976,1961
12.98,1955
12.984,1957
12.988,1958
12.992,1958
12.996,1956
13,1960
13.004,1957
13.008,1957
13.012,1962
13.016,1961
13.02,1961
13.024,1963
13.028,1964
13.032,1965
13.036,1964
13.04,1965
13.044,1964
13.048,1963
13.052,1964
13.056,1967
13.06,1965
13.064,1967
13.068,1966
13.072,1963
13.076,1964
13.08,1961
13.084,1955
13.088,1954
13.092,1958
13.096,1959
13.1,1961
13.104,1962
13.108,1961
13.112,1960
13.116,1958
13.12,1958
13.124,1963
13.128,1963
13.132,1963
13.136,1963
13.14,1963
13.144,1965
13.148,1968
13.152,1967
13.156,1971
13.16,1969
13.164,1968
13.168,1969
13.172,1971
13.176,1973
13.18,1971
13.184,1972
13.188,1971
13.192,1971
13.196,1972
13.2,1972
13.204,1969
13.208,1961
13.212,1959
13.216,1961
13.22,1966
13.224,1965
13.228,1966
13.232,1966
13.236,1960
13.24,1930
13.244,1899
13.248,1924
13.252,2054
13.256,2192
13.26,2376
13.264,2661
13.268,2833
13.272,2741
13.276,2754
13.28,2699
13.284,2561
13.288,2378
13.292,2273
13.296,2188
13.3,2079
13.304,1999
13.308,1947
13.312,1933
13.316,1923
13.32,1921
13.324,1919
13.328,1908
13.332,1898
13.336,1895
13.34,1898
13.344,1894
13.348,1897
13.352,1898
13.356,1896
13.36,1895
13.364,1892
13.368,1893
13.372,1893
13.376,1890
13.38,1885
13.384,1885
13.388,1885
13.392,1891
13.396,1889
13.4,1890
13.404,1889
13.408,1887
13.412,1887
13.416,1887
13.42,1885
13.424,1884
13.428,1883
13.432,1882
13.436,1879
13.44,1879
13.444,1875
13.448,1874
13.452,1874
13.456,1873
13.46,1867
13.464,1874
13.468,1881
13.472,1890
13.476,1900
13.48,1907
13.484,1922
13.488,1923
13.492,1933
13.496,1943
13.5,1958
13.504,1967
13.508,1974
13.512,1985
13.516,1986
13.52,1992
13.524,1995
13.528,1997
13.532,2003
13.536,1999
13.54,1999
13.544,1999
13.548,1999
13.552,1998
13.556,1997
13.56,1995
13.564,1995
13.568,1993
13.572,1991
13.576,1990
13.58,1989
13.584,1983
13.588,1980
13.592,1983
13.596,1989
13.6,1987
13.604,1990
13.608,1989
13.612,1988
13.616,1987
13.62,1989
13.624,1987
13.628,1988
13.632,1985
13.636,1987
13.64,1984
13.644,1987
13.648,1980
13.652,1983
13.656,1982
13.66,1992
13.664,2009
13.668,2035
13.672,2066
13.676,2098
13.68,2131
13.684,2155
13.688,2210
13.692,2294
13.696,2400
13.7,2473
13.704,2516
13.708,2559
13.712,2591
13.716,2654
13.72,2693
13.724,2775
13.728,2943
13.732,3060
13.736,3092
13.74,2991
13.744,2837
13.748,2629
13.752,2418
13.756,2224
13.76,2048
13.764,1928
13.768,1900
13.772,1888
13.776,1879
13.78,1872
13.784,1861
13.788,1857
13.792,1852
13.796,1845
13.8,1837
13.804,1838
13.808,1830
13.812,1828
13.816,1820
13.82,1817
13.824,1812
13.828,1802
13.832,1797
13.836,1791
13.84,1787
13.844,1776
13.848,1778
13.852,1774
13.856,1763
13.86,1751
13.864,1735
13.868,1728
13.872,1721
13.876,1709
13.88,1702
13.884,1697
13.888,1689
13.892,1674
13.896,1672
13.9,1667
13.904,1671
13.908,1668
13.912,1673
13.916,1682
13.92,1699
13.924,1706
13.928,1717
13.932,1741
13.936,1771
13.94,1792
13.944,1815
13.948,1846
13.952,1871
13.956,1890
13.96,1911
13.964,1933
13.968,1950
13.972,1965
13.976,1975
13.98,1985
13.984,1994
13.988,1993
13.992,1998
13.996,2006
14,2008
14.004,2008
14.008,2008
14.012,2016
14.016,2016
14.02,2012
14.024,2012
14.028,2014
14.032,2016
14.036,2012
14.04,2011
14.044,2010
14.048,2011
14.052,2011
14.056,2008
14.06,2008
14.064,2008
14.068,2010
14.072,2012
14.076,2008
14.08,2010
14.084,2002
14.088,2002
14.092,2006
14.096,2008
14.1,2013
14.104,2015
14.108,2014
14.112,2016
14.116,2013
14.12,2019
14.124,2015
14.128,2015
14.132,2014
14.136,2015
14.14,2018
14.144,2022
14.148,2026
14.152,2023
14.156,2025
14.16,2024
14.164,2022
14.168,2020
14.172,2021
14.176,2021
14.18,2021
14.184,2021
14.188,2018
14.192,2021
14.196,2018
14.2,2021
14.204,2014
14.208,1994
14.212,1959
14.216,1956
14.22,2050
14.224,2209
14.228,2387
14.232,2673
14.236,2897
14.24,2813
14.244,2732
14.248,2726
14.252,2623
14.256,2453
14.26,2320
14.264,2236
14.268,2148
14.272,2065
14.276,2013
14.28,1994
14.284,1988
14.288,1985
14.292,1984
14.296,1974
14.3,1971
14.304,1968
14.308,1968
14.312,1960
14.316,1955
14.32,1960
14.324,1958
14.328,1960
14.332,1952
14.336,1953
14.34,1953
14.344,1947
14.348,1950
14.352,1948
14.356,1949
14.36,1953
14.364,1945
14.368,1944
14.372,1939
14.376,1936
14.38,1935
14.384,1934
14.388,1933
14.392,1933
14.396,1930
14.4,1933
14.404,1932
14.408,1929
14.412,1926
14.416,1925
14.42,1925
14.424,1925
14.428,1925
14.432,1929
14.436,1932
14.44,1938
14.444,1944
14.448,1955
14.452,1969
14.456,1978
14.46,1988
14.464,1993
14.468,2005
14.472,2018
14.476,2029
14.48,2033
14.484,2035
14.488,2038
14.492,2034
14.496,2034
14.5,2034
14.504,2037
14.508,2039
14.512,2042
14.516,2041
14.52,2041
14.524,2041
14.528,2043
14.532,2042
14.536,2048
14.54,2045
14.544,2044
14.548,2047
14.552,2045
14.556,2048
14.56,2047
14.564,2048
14.568,2042
14.572,2027
14.576,2010
14.58,2026
14.584,2129
14.588,2276
14.592,2514
14.596,2779
14.6,2914
14.604,2925
14.608,2941
14.612,2828
14.616,2624
14.62,2445
14.624,2313
14.628,2177
14.632,2075
14.636,2024
14.64,2010
14.644,2003
14.648,1998
14.652,1993
14.656,1990
14.66,1985
14.664,1982
14.668,1980
14.672,1977
14.676,1975
14.68,1972
14.684,1970
14.688,1970
14.692,1963
14.696,1965
14.7,1963
14.704,1959
14.708,1958
14.712,1959
14.716,1954
14.72,1958
14.724,1958
14.728,1958
14.732,1958
14.736,1957
14.74,1954
14.744,1949
14.748,1942
14.752,1937
14.756,1936
14.76,1936
14.764,1936
14.768,1931
14.772,1931
14.776,1934
14.78,1939
14.784,1943
14.788,1948
14.792,1952
14.796,1960
14.8,1971
14.804,1978
14.808,1988
14.812,1999
14.816,2006
14.82,2018
14.824,2026
14.828,2032
14.832,2036
14.836,2036
14.84,2035
14.844,2038
14.848,2044
14.852,2051
14.856,2054
14.86,2055
14.864,2051
14.868,2054
14.872,2051
14.876,2049
14.88,2051
14.884,2051
14.888,2053
14.892,2057
14.896,2057
14.9,2055
14.904,2055
14.908,2055
14.912,2055
14.916,2055
14.92,2053
14.924,2052
14.928,2052
14.932,2051
14.936,2052
14.94,2051
14.944,2052
14.948,2051
14.952,2051
14.956,2048
14.96,2047
14.964,2047
14.968,2048
14.972,2048
14.976,2051
14.98,2058
14.984,2057
14.988,2055
14.992,2059
14.996,2055
15,2058
15.004,2056
15.008,2056
15.012,2056
15.016,2055
15.02,2056
15.024,2055
15.028,2055
15.032,2055
15.036,2057
15.04,2050
15.044,2049
15.048,2049
15.052,2048
15.056,2049
15.06,2049
15.064,2051
15.068,2051
15.072,2048
15.076,2045
15.08,2045
15.084,2039
15.088,2028
15.092,2010
15.096,1982
15.1,1987
15.104,2090
15.108,2248
15.112,2408
15.116,2696
15.12,2903
15.124,2814
15.128,2787
15.132,2760
15.136,2639
15.14,2455
15.144,2343
15.148,2254
15.152,2155
15.156,2068
15.16,2017
15.164,2003
15.168,1992
15.172,1992
15.176,1988
15.18,1980
15.184,1974
15.188,1977
15.192,1974
15.196,1969
15.2,1964
15.204,1966
15.208,1968
15.212,1960
15.216,1954
15.22,1954
15.224,1960
15.228,1954
15.232,1958
15.236,1962
15.24,1955
15.244,1952
15.248,1946
15.252,1947
15.256,1945
15.26,1939
15.264,1942
15.268,1940
15.272,1939
15.276,1936
15.28,1930
15.284,1929
15.288,1928
15.292,1926
15.296,1920
15.3,1918
15.304,1916
15.308,1918
15.312,1919
15.316,1926
15.32,1934
15.324,1936
15.328,1945
15.332,1953
15.336,1967
15.34,1974
15.344,1981
15.348,1990
15.352,2004
15.356,2016
15.36,2025
15.364,2031
15.368,2036
15.372,2037
15.376,2033
15.38,2037
15.384,2043
15.388,2046
15.392,2046
15.396,2047
15.4,2047
15.404,2049
15.408,2047
15.412,2048
15.416,2049
15.42,2048
15.424,2044
15.428,2044
15.432,2039
15.436,2037
15.44,2038
15.444,2035
15.448,2037
15.452,2036
15.456,2045
15.46,2062
15.464,2090
15.468,2120
15.472,2150
15.476,2188
15.48,2228
15.484,2281
15.488,2355
15.492,2440
15.496,2504
15.5,2575
15.504,2625
15.508,2665
15.512,2727
15.516,2793
15.52,2880
15.524,3011
15.528,3097
15.532,3133
15.536,3060
15.54,2919
15.544,2728
15.548,2504
15.552,2289
15.556,2104
15.56,1961
15.564,1918
15.568,1910
15.572,1901
15.576,1891
15.58,1882
15.584,1876
15.588,1875
15.592,1867
15.596,1857
15.6,1857
15.604,1856
15.608,1854
15.612,1851
15.616,1846
15.62,1843
15.624,1838
15.628,1827
15.632,1822
15.636,1817
15.64,1810
15.644,1797
15.648,1791
15.652,1784
15.656,1774
15.66,1763
15.664,1751
15.668,1743
15.672,1733
15.676,1719
15.68,1708
15.684,1704
15.688,1695
15.692,1690
15.696,1688
15.7,1693
15.704,1700
15.708,1704
15.712,1717
15.716,1730
15.72,1744
15.724,1760
15.728,1785
15.732,1812
15.736,1838
15.74,1865
15.744,1889
15.748,1914
15.752,1935
15.756,1947
15.76,1971
15.764,1986
15.768,1997
15.772,2005
15.776,2012
15.78,2019
15.784,2023
15.788,2024
15.792,2025
15.796,2025
15.8,2024
15.804,2025
15.808,2023
15.812,2025
15.816,2021
15.82,2020
15.824,2018
15.828,2021
15.832,2025
15.836,2021
15.84,2019
15.844,2015
15.848,2009
15.852,2007
15.856,2011
15.86,2015
15.864,2020
15.868,2015
15.872,2015
15.876,2013
15.88,2012
15.884,2012
15.888,2012
15.892,2012
15.896,2015
15.9,2011
15.904,2012
15.908,2014
15.912,2012
15.916,2016
15.92,2017
15.924,2016
15.928,2017
15.932,2018
15.936,2017
15.94,2016
15.944,2017
15.948,2014
15.952,2006
15.956,1985
15.96,1957
15.964,1978
15.968,2106
15.972,2243
15.976,2424
15.98,2737
15.984,2891
15.988,2800
15.992,2797
15.996,2740
16,2579
16.004,2415
16.008,2315
16.012,2226
16.016,2125
16.02,2042
16.024,1996
16.028,1986
16.032,1976
16.036,1974
16.04,1973
16.044,1968
16.048,1958
16.052,1957
16.056,1958
16.06,1953
16.064,1949
16.068,1947
16.072,1942
16.076,1943
16.08,1938
16.084,1937
16.088,1939
16.092,1932
16.096,1932
16.1,1928
16.104,1931
16.108,1930
16.112,1931
16.116,1931
16.12,1930
16.124,1926
16.128,1920
16.132,1919
16.136,1920
16.14,1915
16.144,1914
16.148,1912
16.152,1913
16.156,1914
16.16,1914
16.164,1915
16.168,1916
16.172,1917
16.176,1918
16.18,1927
16.184,1933
16.188,1942
16.192,1953
16.196,1968
16.2,1980
16.204,1987
16.208,1999
16.212,2008
16.216,2009
16.22,2008
16.224,2009
16.228,2012
16.232,2016
16.236,2021
16.24,2025
16.244,2024
16.248,2026
16.252,2025
16.256,2022
16.26,2023
16.264,2021
16.268,2021
16.272,2024
16.276,2021
16.28,2021
16.284,2019
16.288,2020
16.292,2019
16.296,2017
16.3,2013
16.304,2012
16.308,2012
16.312,2010
16.316,2012
16.32,2010
16.324,2012
16.328,2014
16.332,2011
16.336,2010
16.34,2008
16.344,2007
16.348,2005
16.352,2000
16.356,2001
16.36,2002
16.364,2005
16.368,2010
16.372,2008
16.376,2012
16.38,2007
16.384,2007
16.388,2006
16.392,2004
16.396,2004
16.4,2004
16.404,2004
16.408,2006
16.412,2007
16.416,2011
16.42,2009
16.424,2011
16.428,2014
16.432,2014
16.436,2015
16.44,2015
16.444,2016
16.448,2016
16.452,2012
16.456,2010
16.46,2007
16.464,2008
16.468,2007
16.472,2003
16.476,2000
16.48,2001
16.484,2004
16.488,2006
16.492,2007
16.496,2014
16.5,2012
16.504,2014
16.508,2012
16.512,2013
16.516,2012
16.52,2013
16.524,2012
16.528,2009
16.532,2012
16.536,2009
16.54,2009
16.544,2011
16.548,2014
16.552,2011
16.556,2011
16.56,2013
16.564,2013
16.568,2013
16.572,2013
16.576,2012
16.58,2001
16.584,1972
16.588,1936
16.592,1952
16.596,2077
16.6,2229
16.604,2416
16.608,2732
16.612,2892
16.616,2774
16.62,2766
16.624,2718
16.628,2562
16.632,2394
16.636,2292
16.64,2196
16.644,2104
16.648,2031
16.652,1988
16.656,1975
16.66,1966
16.664,1963
16.668,1961
16.672,1954
16.676,1949
16.68,1953
16.684,1953
16.688,1945
16.692,1944
16.696,1944
16.7,1945
16.704,1939
16.708,1936
16.712,1939
16.716,1934
16.72,1928
16.724,1924
16.728,1917
16.732,1913
16.736,1914
16.74,1914
16.744,1922
16.748,1920
16.752,1916
16.756,1914
16.76,1913
16.764,1912
16.768,1910
16.772,1903
16.776,1907
16.78,1907
16.784,1905
16.788,1906
16.792,1907
16.796,1907
16.8,1912
16.804,1914
16.808,1920
16.812,1923
16.816,1934
16.82,1942
16.824,1946
16.828,1957
16.832,1970
16.836,1979
16.84,1991
16.844,1999
16.848,2005
16.852,2004
16.856,2007
16.86,2011
16.864,2018
16.868,2019
16.872,2021
16.876,2017
16.88,2022
16.884,2017
16.888,2018
16.892,2015
16.896,2022
16.9,2021
16.904,2022
16.908,2022
16.912,2023
16.916,2022
16.92,2030
16.924,2035
16.928,2034
16.932,2037
16.936,2034
16.94,2033
16.944,2032
16.948,2028
16.952,2032
16.956,2029
16.96,2030
16.964,2030
16.968,2022
16.972,2024
16.976,2017
16.98,2010
16.984,2005
16.988,2014
16.992,2010
16.996,2014
17,2008
17.004,2010
17.008,2014
17.012,2010
17.016,2012
17.02,2011
17.024,2012
17.028,2012
17.032,2017
17.036,2022
17.04,2021
17.044,2021
17.048,2024
17.052,2028
17.056,2024
17.06,2021
17.064,1991
17.068,1966
17.072,1998
17.076,2132
17.08,2301
17.084,2516
17.088,2806
17.092,2888
17.096,2734
17.1,2720
17.104,2656
17.108,2491
17.112,2351
17.116,2261
17.12,2176
17.124,2089
17.128,2023
17.132,1997
17.136,1983
17.14,1978
17.144,1971
17.148,1970
17.152,1963
17.156,1963
17.16,1966
17.164,1964
17.168,1956
17.172,1961
17.176,1963
17.18,1961
17.184,1953
17.188,1956
17.192,1958
17.196,1955
17.2,1956
17.204,1958
17.208,1956
17.212,1954
17.216,1953
17.22,1950
17.224,1950
17.228,1941
17.232,1937
17.236,1938
17.24,1937
17.244,1937
17.248,1932
17.252,1927
17.256,1925
17.26,1918
17.264,1912
17.268,1910
17.272,1907
17.276,1910
17.28,1908
17.284,1915
17.288,1920
17.292,1923
17.296,1932
17.3,1944
17.304,1953
17.308,1963
17.312,1976
17.316,1989
17.32,1995
17.324,2000
17.328,2005
17.332,2010
17.336,2012
17.34,2011
17.344,2016
17.348,2017
17.352,2016
17.356,2013
17.36,2015
17.364,2020
17.368,2022
17.372,2020
17.376,2019
17.38,2023
17.384,2022
17.388,2022
17.392,2021
17.396,2019
17.4,2021
17.404,2020
17.408,2024
17.412,2023
17.416,2024
17.42,2027
17.424,2025
17.428,2024
17.432,2025
17.436,2024
17.44,2025
17.444,2026
17.448,2024
17.452,2026
17.456,2024
17.46,2023
17.464,2024
17.468,2024
17.472,2026
17.476,2025
17.48,2016
17.484,2025
17.488,2032
17.492,2040
17.496,2039
17.5,2039
17.504,2041
17.508,2038
17.512,2037
17.516,2034
17.52,2034
17.524,2034
17.528,2032
17.532,2032
17.536,2032
17.54,2032
17.544,2032
17.548,2032
17.552,2030
17.556,2029
17.56,2030
17.564,2033
17.568,2035
17.572,2036
17.576,2037
17.58,2038
17.584,2038
17.588,2038
17.592,2040
17.596,2038
17.6,2038
17.604,2033
17.608,2035
17.612,2044
17.616,2047
17.62,2047
17.624,2052
17.628,2049
17.632,2051
17.636,2046
17.64,2047
17.644,2047
17.648,2045
17.652,2045
17.656,2042
17.66,2044
17.664,2047
17.668,2054
17.672,2052
17.676,2054
17.68,2051
17.684,2051
17.688,2049
17.692,2051
17.696,2049
17.7,2048
17.704,2049
17.708,2048
17.712,2043
17.716,2048
17.72,2044
17.724,2040
17.728,2044
17.732,2047
17.736,2047
17.74,2049
17.744,2056
17.748,2051
17.752,2039
17.756,2008
17.76,1978
17.764,2013
17.768,2150
17.772,2290
17.776,2485
17.78,2774
17.784,2917
17.788,2848
17.792,2872
17.796,2811
17.8,2635
17.804,2466
17.808,2363
17.812,2260
17.816,2155
17.82,2068
17.824,2028
17.828,2014
17.832,2003
17.836,2000
17.84,2003
17.844,1995
17.848,1993
17.852,1990
17.856,1986
17.86,1985
17.864,1979
17.868,1985
17.872,1988
17.876,1984
17.88,1980
17.884,1980
17.888,1977
17.892,1978
17.896,1973
17.9,1974
17.904,1972
17.908,1974
17.912,1966
17.916,1970
17.92,1967
17.924,1964
17.928,1961
17.932,1961
17.936,1960
17.94,1955
17.944,1952
17.948,1952
17.952,1953
17.956,1950
17.96,1951
17.964,1946
17.968,1948
17.972,1947
17.976,1947
17.98,1950
17.984,1952
17.988,1957
17.992,1969
17.996,1981
18,1986
18.004,1997
18.008,2005
18.012,2018
18.016,2024
18.02,2032
18.024,2043
18.028,2053
18.032,2053
18.036,2060
18.04,2065
18.044,2065
18.048,2069
18.052,2070
18.056,2075
18.06,2073
18.064,2074
18.068,2076
18.072,2075
18.076,2079
18.08,2079
18.084,2078
18.088,2076
18.092,2081
18.096,2085
18.1,2107
18.104,2136
18.108,2168
18.112,2198
18.116,2235
18.12,2284
18.124,2336
18.128,2408
18.132,2466
18.136,2535
18.14,2600
18.144,2635
18.148,2709
18.152,2809
18.156,2918
18.16,3027
18.164,3125
18.168,3178
18.172,3175
18.176,3056
18.18,2866
18.184,2611
18.188,2342
18.192,2127
18.196,1992
18.2,1961
18.204,1947
18.208,1937
18.212,1924
18.216,1917
18.22,1911
18.224,1903
18.228,1900
18.232,1894
18.236,1886
18.24,1885
18.244,1883
18.248,1884
18.252,1877
18.256,1873
18.26,1866
18.264,1857
18.268,1851
18.272,1842
18.276,1834
18.28,1827
18.284,1818
18.288,1810
18.292,1804
18.296,1800
18.3,1790
18.304,1782
18.308,1776
18.312,1771
18.316,1765
18.32,1762
18.324,1757
18.328,1755
18.332,1756
18.336,1754
18.34,1760
18.344,1764
18.348,1774
18.352,1786
18.356,1802
18.36,1820
18.364,1843
18.368,1870
18.372,1899
18.376,1926
18.38,1943
18.384,1961
18.388,1978
18.392,1993
18.396,2005
18.4,2015
18.404,2023
18.408,2035
18.412,2045
18.416,2052
18.42,2059
18.424,2064
18.428,2063
18.432,2063
18.436,2062
18.44,2063
18.444,2065
18.448,2067
18.452,2066
18.456,2066
18.46,2061
18.464,2058
18.468,2059
18.472,2058
18.476,2058
18.48,2058
18.484,2057
18.488,2056
18.492,2056
18.496,2058
18.5,2062
18.504,2059
18.508,2061
18.512,2059
18.516,2060
18.52,2057
18.524,2059
18.528,2058
18.532,2059
18.536,2061
18.54,2061
18.544,2059
18.548,2060
18.552,2062
18.556,2061
18.56,2061
18.564,2066
18.568,2063
18.572,2061
18.576,2054
18.58,2031
18.584,2000
18.588,2009
18.592,2125
18.596,2270
18.6,2442
18.604,2740
18.608,2931
18.612,2864
18.616,2846
18.62,2809
18.624,2661
18.628,2479
18.632,2367
18.636,2275
18.64,2168
18.644,2086
18.648,2040
18.652,2030
18.656,2019
18.66,2016
18.664,2015
18.668,2009
18.672,2002
18.676,2002
18.68,2001
18.684,2000
18.688,1993
18.692,1997
18.696,1993
18.7,1989
18.704,1989
18.708,1989
18.712,1993
18.716,1992
18.72,1989
18.724,1988
18.728,1984
18.732,1979
18.736,1975
18.74,1972
18.744,1972
18.748,1972
18.752,1972
18.756,1970
18.76,1965
18.764,1959
18.768,1958
18.772,1955
18.776,1951
18.78,1949
18.784,1947
18.788,1948
18.792,1947
18.796,1949
18.8,1949
18.804,1955
18.808,1963
18.812,1971
18.816,1982
18.82,1997
18.824,2007
18.828,2020
18.832,2031
18.836,2040
18.84,2048
18.844,2047
18.848,2055
18.852,2058
18.856,2056
18.86,2058
18.864,2056
18.868,2060
18.872,2062
18.876,2066
18.88,2072
18.884,2069
18.888,2065
18.892,2065
18.896,2062
18.9,2058
18.904,2057
18.908,2057
18.912,2054
18.916,2050
18.92,2051
18.924,2049
18.928,2050
18.932,2050
18.936,2053
18.94,2054
18.944,2053
18.948,2050
18.952,2049
18.956,2046
18.96,2047
18.964,2046
18.968,2042
18.972,2043
18.976,2043
18.98,2040
18.984,2043
18.988,2036
18.992,2033
18.996,2036
19,2039
19.004,2047
19.008,2042
19.012,2044
19.016,2045
19.02,2043
19.024,2039
19.028,2036
19.032,2039
19.036,2035
19.04,2036
19.044,2032
19.048,2036
19.052,2038
19.056,2036
19.06,2027
19.064,2001
19.068,1971
19.072,2016
19.076,2152
19.08,2295
19.084,2520
19.088,2805
19.092,2890
19.096,2822
19.1,2807
19.104,2724
19.108,2545
19.112,2387
19.116,2296
19.12,2202
19.124,2105
19.128,2028
19.132,1994
19.136,1981
19.14,1974
19.144,1973
19.148,1962
19.152,1954
19.156,1954
19.16,1955
19.164,1953
19.168,1951
19.172,1951
19.176,1952
19.18,1950
19.184,1946
19.188,1945
19.192,1943
19.196,1937
19.2,1935
19.204,1934
19.208,1933
19.212,1931
19.216,1922
19.22,1920
19.224,1919
19.228,1917
19.232,1915
19.236,1912
19.24,1904
19.244,1902
19.248,1899
19.252,1897
19.256,1899
19.26,1892
19.264,1891
19.268,1887
19.272,1880
19.276,1881
19.28,1882
19.284,1888
19.288,1899
19.292,1906
19.296,1916
19.3,1926
19.304,1936
19.308,1948
19.312,1957
19.316,1968
19.32,1977
19.324,1984
19.328,1988
19.332,1994
19.336,1997
19.34,2001
19.344,2003
19.348,2005
19.352,2009
19.356,2012
19.36,2009
19.364,2008
19.368,2003
19.372,2001
19.376,2005
19.38,2007
19.384,2011
19.388,2005
19.392,2001
19.396,1998
19.4,1996
19.404,1998
19.408,1994
19.412,1993
19.416,1996
19.42,1994
19.424,1995
19.428,1993
19.432,1990
19.436,1990
19.44,1987
19.444,1986
19.448,1987
19.452,1985
19.456,1982
19.46,1982
19.464,1983
19.468,1982
19.472,1983
19.476,1982
19.48,1983
19.484,1986
19.488,1991
19.492,1987
19.496,1990
19.5,1997
19.504,2001
19.508,2003
19.512,2000
19.516,2001
19.52,2000
19.524,1996
19.528,1998
19.532,1992
19.536,1990
19.54,1992
19.544,1992
19.548,1993
19.552,1992
19.556,1996
19.56,1994
19.564,1992
19.568,1994
19.572,1991
19.576,1992
19.58,1992
19.584,1992
19.588,1992
19.592,1991
19.596,1985
19.6,1988
19.604,1988
19.608,1986
19.612,1987
19.616,1984
19.62,1982
19.624,1985
19.628,1992
19.632,1991
19.636,1993
19.64,1988
19.644,1993
19.648,1988
19.652,1987
19.656,1986
19.66,1984
19.664,1981
19.668,1984
19.672,1990
19.676,1990
19.68,1989
19.684,1988
19.688,1986
19.692,1980
19.696,1984
19.7,1983
19.704,1977
19.708,1978
19.712,1977
19.716,1978
19.72,1975
19.724,1980
19.728,1981
19.732,1979
19.736,1981
19.74,1977
19.744,1978
19.748,1977
19.752,1983
19.756,1984
19.76,1986
19.764,1986
19.768,1985
19.772,1980
19.776,1976
19.78,1975
19.784,1968
19.788,1976
19.792,1978
19.796,1976
19.8,1978
19.804,1978
19.808,1980
19.812,1980
19.816,1980
19.82,1992
19.824,1993
19.828,1988
19.832,1988
19.836,1986
19.84,1987
19.844,1985
19.848,1988
19.852,1985
19.856,1983
19.86,1983
19.864,1983
19.868,1979
19.872,1983
19.876,1988
19.88,1992
19.884,1988
19.888,1987
19.892,1979
19.896,1952
19.9,1916
19.904,1923
19.908,2041
19.912,2195
19.916,2377
19.92,2690
19.924,2877
19.928,2757
19.932,2725
19.936,2694
19.94,2555
19.944,2387
19.948,2267
19.952,2187
19.956,2091
19.96,2008
19.964,1963
19.968,1948
19.972,1932
19.976,1932
19.98,1927
19.984,1922
19.988,1915
19.992,1909
19.996,1910
20,1905
20.004,1903
20.008,1909
20.012,1917
20.016,1908
20.02,1903
20.024,1900
20.028,1900
20.032,1897
20.036,1889
20.04,1888
20.044,1892
20.048,1893
20.052,1891
20.056,1889
20.06,1889
20.064,1889
20.068,1884
20.072,1884
20.076,1884
20.08,1882
20.084,1882
20.088,1883
20.092,1881
20.096,1876
20.1,1875
20.104,1874
20.108,1875
20.112,1877
20.116,1876
20.12,1875
20.124,1876
20.128,1885
20.132,1894
20.136,1901
20.14,1913
20.144,1916
20.148,1921
20.152,1929
20.156,1941
20.16,1946
20.164,1952
20.168,1968
20.172,1980
20.176,1985
20.18,1987
20.184,1989
20.188,1994
20.192,1993
20.196,1993
20.2,1994
20.204,1999
20.208,1999
20.212,2000
20.216,1996
20.22,2000
20.224,1996
20.228,2000
20.232,2007
20.236,2027
20.24,2060
20.244,2087
20.248,2120
20.252,2159
20.256,2209
20.26,2279
20.264,2374
20.268,2433
20.272,2498
20.276,2564
20.28,2601
20.284,2667
20.288,2746
20.292,2838
20.296,2927
20.3,3014
20.304,3054
20.308,3036
20.312,2938
20.316,2750
20.32,2465
20.324,2219
20.328,2024
20.332,1929
20.336,1907
20.34,1895
20.344,1888
20.348,1877
20.352,1867
20.356,1862
20.36,1857
20.364,1850
20.368,1839
20.372,1832
20.376,1830
20.38,1827
20.384,1832
20.388,1830
20.392,1827
20.396,1824
20.4,1812
20.404,1802
20.408,1804
20.412,1801
20.416,1789
20.42,1785
20.424,1786
20.428,1781
20.432,1769
20.436,1768
20.44,1761
20.444,1758
20.448,1748
20.452,1745
20.456,1744
20.46,1738
20.464,1734
20.468,1734
20.472,1737
20.476,1744
20.48,1747
20.484,1755
20.488,1772
20.492,1785
20.496,1800
20.5,1821
20.504,1841
20.508,1869
20.512,1891
20.516,1912
20.52,1939
20.524,1963
20.528,1979
20.532,1996
20.536,2012
20.54,2028
20.544,2032
20.548,2037
20.552,2053
20.556,2059
20.56,2060
20.564,2066
20.568,2072
20.572,2074
20.576,2076
20.58,2077
20.584,2081
20.588,2080
20.592,2079
20.596,2079
20.6,2082
20.604,2084
20.608,2081
20.612,2082
20.616,2078
20.62,2073
20.624,2069
20.628,2072
20.632,2076
20.636,2082
20.64,2078
20.644,2082
20.648,2083
20.652,2087
20.656,2089
20.66,2093
20.664,2095
20.668,2098
20.672,2102
20.676,2107
20.68,2106
20.684,2107
20.688,2115
20.692,2113
20.696,2115
20.7,2116
20.704,2119
20.708,2121
20.712,2123
20.716,2123
20.72,2124
20.724,2121
20.728,2124
20.732,2120
20.736,2123
20.74,2125
20.744,2122
20.748,2123
20.752,2127
20.756,2130
20.76,2131
20.764,2130
20.768,2131
20.772,2129
20.776,2128
20.78,2126
20.784,2126
20.788,2125
20.792,2122
20.796,2122
20.8,2122
20.804,2119
20.808,2121
20.812,2124
20.816,2122
20.82,2122
20.824,2117
20.828,2112
20.832,2108
20.836,2110
20.84,2107
20.844,2110
20.848,2122
20.852,2125
20.856,2122
20.86,2117
20.864,2115
20.868,2113
20.872,2111
20.876,2113
20.88,2119
20.884,2126
20.888,2130
20.892,2126
20.896,2128
20.9,2120
20.904,2118
20.908,2117
20.912,2120
20.916,2126
20.92,2130
20.924,2126
20.928,2130
20.932,2129
20.936,2133
20.94,2135
20.944,2139
20.948,2142
20.952,2140
20.956,2145
20.96,2143
20.964,2145
20.968,2142
20.972,2144
20.976,2137
20.98,2142
20.984,2141
20.988,2142
20.992,2142
20.996,2140
21,2140
21.004,2139
21.008,2139
21.012,2141
21.016,2144
21.02,2140
21.024,2141
21.028,2140
21.032,2135
21.036,2117
21.04,2083
21.044,2083
21.048,2184
21.052,2332
21.056,2482
21.06,2765
21.064,3000
21.068,2985
21.072,2965
21.076,2940
21.08,2814
21.084,2630
21.088,2482
21.092,2383
21.096,2283
21.1,2190
21.104,2130
21.108,2102
21.112,2102
21.116,2101
21.12,2096
21.124,2081
21.128,2071
21.132,2078
21.136,2074
21.14,2066
21.144,2061
21.148,2063
21.152,2059
21.156,2055
21.16,2053
21.164,2055
21.168,2055
21.172,2051
21.176,2052
21.18,2054
21.184,2052
21.188,2054
21.192,2052
21.196,2054
21.2,2051
21.204,2049
21.208,2054
21.212,2057
21.216,2059
21.22,2057
21.224,2057
21.228,2057
21.232,2056
21.236,2055
21.24,2053
21.244,2050
21.248,2047
21.252,2044
21.256,2050
21.26,2058
21.264,2065
21.268,2069
21.272,2073
21.276,2080
21.28,2088
21.284,2100
21.288,2110
21.292,2127
21.296,2140
21.3,2152
21.304,2161
21.308,2167
21.312,2174
21.316,2183
21.32,2187
21.324,2194
21.328,2196
21.332,2199
21.336,2198
21.34,2201
21.344,2205
21.348,2208
21.352,2205
21.356,2206
21.36,2205
21.364,2209
21.368,2208
21.372,2206
21.376,2203
21.38,2198
21.384,2203
21.388,2201
21.392,2203
21.396,2200
21.4,2198
21.404,2196
21.408,2192
21.412,2188
21.416,2186
21.42,2185
21.424,2181
21.428,2178
21.432,2176
21.436,2172
21.44,2169
21.444,2166
21.448,2161
21.452,2165
21.456,2170
21.46,2174
21.464,2179
21.468,2182
21.472,2179
21.476,2184
21.48,2184
21.484,2189
21.488,2185
21.492,2187
21.496,2186
21.5,2184
21.504,2186
21.508,2186
21.512,2195
21.516,2195
21.52,2198
21.524,2198
21.528,2200
21.532,2203
21.536,2199
21.54,2199
21.544,2198
21.548,2196
21.552,2193
21.556,2179
21.56,2149
21.564,2133
21.568,2190
21.572,2336
21.576,2480
21.58,2738
21.584,3012
21.588,3048
21.592,2972
21.596,2968
21.6,2871
21.604,2689
21.608,2549
21.612,2463
21.616,2365
21.62,2261
21.624,2195
21.628,2170
21.632,2165
21.636,2165
21.64,2164
21.644,2161
21.648,2153
21.652,2149
21.656,2150
21.66,2143
21.664,2140
21.668,2143
21.672,2144
21.676,2143
21.68,2139
21.684,2143
21.688,2144
21.692,2141
21.696,2139
21.7,2134
21.704,2135
21.708,2134
21.712,2134
21.716,2132
21.72,2133
21.724,2130
21.728,2130
21.732,2128
21.736,2123
21.74,2123
21.744,2115
21.748,2108
21.752,2104
21.756,2104
21.76,2108
21.764,2111
21.768,2110
21.772,2110
21.776,2109
21.78,2108
21.784,2111
21.788,2116
21.792,2118
21.796,2125
21.8,2136
21.804,2147
21.808,2159
21.812,2170
21.816,2180
21.82,2191
21.824,2195
21.828,2198
21.832,2205
21.836,2206
21.84,2209
21.844,2207
21.848,2213
21.852,2210
21.856,2210
21.86,2209
21.864,2210
21.868,2205
21.872,2202
21.876,2196
21.88,2194
21.884,2200
21.888,2207
21.892,2211
21.896,2209
21.9,2207
21.904,2209
21.908,2206
21.912,2206
21.916,2206
21.92,2210
21.924,2215
21.928,2218
21.932,2218
21.936,2218
21.94,2218
21.944,2222
21.948,2223
21.952,2227
21.956,2227
21.96,2227
21.964,2223
21.968,2208
21.972,2182
21.976,2188
21.98,2289
21.984,2444
21.988,2621
21.992,2898
21.996,3057
22,3019
22.004,3025
22.008,2983
22.012,2836
22.016,2661
22.02,2547
22.024,2449
22.028,2334
22.032,2246
22.036,2200
22.04,2187
22.044,2176
22.048,2173
22.052,2166
22.056,2164
22.06,2159
22.064,2155
22.068,2156
22.072,2152
22.076,2149
22.08,2147
22.084,2146
22.088,2139
22.092,2134
22.096,2135
22.1,2133
22.104,2132
22.108,2124
22.112,2125
22.116,2126
22.12,2122
22.124,2116
22.128,2115
22.132,2120
22.136,2122
22.14,2126
22.144,2122
22.148,2123
22.152,2117
22.156,2113
22.16,2109
22.164,2107
22.168,2105
22.172,2105
22.176,2103
22.18,2100
22.184,2102
22.188,2102
22.192,2112
22.196,2117
22.2,2119
22.204,2129
22.208,2148
22.212,2162
22.216,2167
22.22,2173
22.224,2180
22.228,2186
22.232,2191
22.236,2190
22.24,2193
22.244,2202
22.248,2200
22.252,2198
22.256,2203
22.26,2207
22.264,2206
22.268,2206
22.272,2208
22.276,2206
22.28,2204
22.284,2203
22.288,2203
22.292,2201
22.296,2198
22.3,2203
22.304,2200
22.308,2203
22.312,2202
22.316,2195
22.32,2198
22.324,2196
22.328,2198
22.332,2198
22.336,2197
22.34,2198
22.344,2197
22.348,2196
22.352,2193
22.356,2192
22.36,2192
22.364,2193
22.368,2198
22.372,2192
22.376,2188
22.38,2191
22.384,2193
22.388,2198
22.392,2194
22.396,2197
22.4,2195
22.404,2193
22.408,2198
22.412,2200
22.416,2203
22.42,2206
22.424,2202
22.428,2202
22.432,2203
22.436,2206
22.44,2209
22.444,2206
22.448,2205
22.452,2202
22.456,2204
22.46,2205
22.464,2203
22.468,2198
22.472,2196
22.476,2201
22.48,2191
22.484,2166
22.488,2134
22.492,2162
22.496,2284
22.5,2445
22.504,2650
22.508,2964
22.512,3083
22.516,2931
22.52,2906
22.524,2863
22.528,2700
22.532,2550
22.536,2448
22.54,2360
22.544,2276
22.548,2200
22.552,2167
22.556,2156
22.56,2148
22.564,2147
22.568,2143
22.572,2135
22.576,2130
22.58,2133
22.584,2130
22.588,2126
22.592,2119
22.596,2126
22.6,2120
22.604,2118
22.608,2119
22.612,2115
22.616,2114
22.62,2104
22.624,2101
22.628,2099
22.632,2102
22.636,2099
22.64,2105
22.644,2097
22.648,2097
22.652,2094
22.656,2088
22.66,2093
22.664,2089
22.668,2082
22.672,2087
22.676,2081
22.68,2080
22.684,2072
22.688,2074
22.692,2076
22.696,2073
22.7,2079
22.704,2082
22.708,2084
22.712,2086
22.716,2091
22.72,2103
22.724,2115
22.728,2124
22.732,2129
22.736,2137
22.74,2151
22.744,2157
22.748,2157
22.752,2167
22.756,2171
22.76,2177
22.764,2187
22.768,2192
22.772,2195
22.776,2195
22.78,2192
22.784,2194
22.788,2196
22.792,2198
22.796,2201
22.8,2204
22.804,2204
22.808,2202
22.812,2206
22.816,2204
22.82,2206
22.824,2204
22.828,2203
22.832,2201
22.836,2196
22.84,2195
22.844,2192
22.848,2194
22.852,2192
22.856,2189
22.86,2190
22.864,2189
22.868,2188
22.872,2186
22.876,2180
22.88,2181
22.884,2179
22.888,2182
22.892,2187
22.896,2188
22.9,2188
22.904,2188
22.908,2191
22.912,2188
22.916,2186
22.92,2187
22.924,2189
22.928,2195
22.932,2192
22.936,2196
22.94,2196
22.944,2199
22.948,2200
22.952,2198
22.956,2197
22.96,2197
22.964,2198
22.968,2200
22.972,2200
22.976,2199
22.98,2202
22.984,2201
22.988,2200
22.992,2201
22.996,2201
23,2200
23.004,2203
23.008,2206
23.012,2208
23.016,2212
23.02,2216
23.024,2213
23.028,2212
23.032,2211
23.036,2211
23.04,2208
23.044,2207
23.048,2211
23.052,2215
23.056,2215
23.06,2216
23.064,2220
23.068,2220
23.072,2221
23.076,2221
23.08,2221
23.084,2218
23.088,2199
23.092,2171
23.096,2163
23.1,2254
23.104,2401
23.108,2555
23.112,2835
23.116,3073
23.12,3026
23.124,2973
23.128,2961
23.132,2853
23.136,2676
23.14,2545
23.144,2458
23.148,2359
23.152,2266
23.156,2206
23.16,2183
23.164,2178
23.168,2169
23.172,2168
23.176,2161
23.18,2161
23.184,2158
23.188,2161
23.192,2160
23.196,2161
23.2,2167
23.204,2165
23.208,2164
23.212,2164
23.216,2163
23.22,2166
23.224,2165
23.228,2165
23.232,2163
23.236,2164
23.24,2156
23.244,2155
23.248,2154
23.252,2151
23.256,2142
23.26,2147
23.264,2148
23.268,2150
23.272,2148
23.276,2143
23.28,2136
23.284,2130
23.288,2119
23.292,2117
23.296,2114
23.3,2115
23.304,2119
23.308,2124
23.312,2126
23.316,2125
23.32,2130
23.324,2144
23.328,2152
23.332,2164
23.336,2178
23.34,2194
23.344,2204
23.348,2217
23.352,2222
23.356,2231
23.36,2238
23.364,2241
23.368,2241
23.372,2244
23.376,2246
23.38,2239
23.384,2240
23.388,2245
23.392,2251
23.396,2251
23.4,2249
23.404,2249
23.408,2243
23.412,2243
23.416,2244
23.42,2245
23.424,2255
23.428,2266
23.432,2293
23.436,2327
23.44,2363
23.444,2400
23.448,2433
23.452,2477
23.456,2537
23.46,2627
23.464,2690
23.468,2771
23.472,2821
23.476,2852
23.48,2942
23.484,3049
23.488,3152
23.492,3254
23.496,3325
23.5,3378
23.504,3336
23.508,3205
23.512,3009
23.516,2756
23.52,2498
23.524,2297
23.528,2173
23.532,2143
23.536,2127
23.54,2115
23.544,2109
23.548,2098
23.552,2092
23.556,2092
23.56,2086
23.564,2082
23.568,2080
23.572,2077
23.576,2076
23.58,2072
23.584,2068
23.588,2062
23.592,2055
23.596,2047
23.6,2039
23.604,2034
23.608,2026
23.612,2017
