time,signal
0,2079
0.004,2079
0.008,2079
0.012,2079
0.016,2080
0.02,2080
0.024,2079
0.028,2078
0.032,2077
0.036,2075
0.04,2075
0.044,2076
0.048,2076
0.052,2077
0.056,2074
0.06,2076
0.064,2075
0.068,2077
0.072,2079
0.076,2085
0.08,2088
0.084,2091
0.088,2102
0.092,2112
0.096,2124
0.1,2134
0.104,2144
0.108,2154
0.112,2165
0.116,2168
0.12,2177
0.124,2183
0.128,2185
0.132,2187
0.136,2192
0.14,2196
0.144,2193
0.148,2197
0.152,2196
0.156,2200
0.16,2196
0.164,2198
0.168,2197
0.172,2192
0.176,2192
0.18,2193
0.184,2194
0.188,2201
0.192,2222
0.196,2253
0.2,2285
0.204,2319
0.208,2356
0.212,2388
0.216,2438
0.22,2517
0.224,2588
0.228,2660
0.232,2727
0.236,2762
0.24,2832
0.244,2939
0.248,3061
0.252,3167
0.256,3276
0.26,3321
0.264,3334
0.268,3219
0.272,3038
0.276,2788
0.28,2503
0.284,2278
0.288,2123
0.292,2080
0.296,2065
0.3,2055
0.304,2044
0.308,2029
0.312,2016
0.316,2017
0.32,2017
0.324,2010
0.328,2008
0.332,2005
0.336,1998
0.34,1992
0.344,1988
0.348,1985
0.352,1973
0.356,1965
0.36,1958
0.364,1954
0.368,1946
0.372,1934
0.376,1932
0.38,1923
0.384,1915
0.388,1903
0.392,1898
0.396,1891
0.4,1878
0.404,1870
0.408,1863
0.412,1856
0.416,1844
0.42,1838
0.424,1835
0.428,1836
0.432,1834
0.436,1836
0.44,1840
0.444,1852
0.448,1865
0.452,1884
0.456,1909
0.46,1933
0.464,1951
0.468,1970
0.472,1996
0.476,2022
0.48,2038
0.484,2055
0.488,2068
0.492,2084
0.496,2091
0.5,2097
0.504,2106
0.508,2112
0.512,2120
0.516,2121
0.52,2125
0.524,2130
0.528,2130
0.532,2127
0.536,2132
0.54,2132
0.544,2128
0.548,2127
0.552,2125
0.556,2125
0.56,2124
0.564,2121
0.568,2117
0.572,2117
0.576,2117
0.58,2119
0.584,2119
0.588,2119
0.592,2117
0.596,2115
0.6,2113
0.604,2112
0.608,2113
0.612,2108
0.616,2105
0.62,2100
0.624,2099
0.628,2114
0.632,2116
0.636,2118
0.64,2119
0.644,2120
0.648,2116
0.652,2121
0.656,2117
0.66,2114
0.664,2116
0.668,2113
0.672,2113
0.676,2113
0.68,2115
0.684,2115
0.688,2113
0.692,2114
0.696,2110
0.7,2108
0.704,2113
0.708,2111
0.712,2106
0.716,2084
0.72,2051
0.724,2070
0.728,2196
0.732,2347
0.736,2529
0.74,2846
0.744,3004
0.748,2882
0.752,2862
0.756,2819
0.76,2652
0.764,2488
0.768,2383
0.772,2295
0.776,2202
0.78,2119
0.784,2078
0.788,2065
0.792,2055
0.796,2049
0.8,2046
0.804,2037
0.808,2035
0.812,2035
0.816,2032
0.82,2030
0.824,2032
0.828,2033
0.832,2034
0.836,2030
0.84,2025
0.844,2025
0.848,2022
0.852,2016
0.856,2013
0.86,2009
0.864,2011
0.868,2009
0.872,2005
0.876,2005
0.88,2005
0.884,2003
0.888,2001
0.892,2003
0.896,2004
0.9,2002
0.904,1997
0.908,1990
0.912,1986
0.916,1980
0.92,1978
0.924,1975
0.928,1973
0.932,1977
0.936,1974
0.94,1977
0.944,1984
0.948,1994
0.952,2006
0.956,2012
0.96,2022
0.964,2032
0.968,2044
0.972,2056
0.976,2060
0.98,2066
0.984,2071
0.988,2075
0.992,2075
0.996,2079
1,2083
1.004,2087
1.008,2086
1.012,2087
1.016,2087
1.02,2081
1.024,2082
1.028,2081
1.032,2085
1.036,2089
1.04,2087
1.044,2087
1.048,2088
1.052,2087
1.056,2087
1.06,2085
1.064,2087
1.068,2088
1.072,2086
1.076,2084
1.08,2082
1.084,2076
1.088,2076
1.092,2070
1.096,2062
1.1,2061
1.104,2061
1.108,2061
1.112,2056
1.116,2059
1.12,2060
1.124,2058
1.128,2058
1.132,2058
1.136,2058
1.14,2058
1.144,2057
1.148,2056
1.152,2059
1.156,2058
1.16,2058
1.164,2060
1.168,2058
1.172,2061
1.176,2065
1.18,2064
1.184,2063
1.188,2063
1.192,2067
1.196,2069
1.2,2069
1.204,2070
1.208,2071
1.212,2072
1.216,2069
1.22,2066
1.224,2066
1.228,2062
1.232,2064
1.236,2057
1.24,2055
1.244,2055
1.248,2054
1.252,2051
1.256,2050
1.26,2052
1.264,2053
1.268,2053
1.272,2052
1.276,2052
1.28,2051
1.284,2053
1.288,2052
1.292,2053
1.296,2052
1.3,2051
1.304,2051
1.308,2052
1.312,2051
1.316,2052
1.32,2051
1.324,2052
1.328,2053
1.332,2052
1.336,2051
1.34,2048
1.344,2051
1.348,2049
1.352,2051
1.356,2051
1.36,2051
1.364,2055
1.368,2056
1.372,2056
1.376,2057
1.38,2053
1.384,2051
1.388,2050
1.392,2049
1.396,2049
1.4,2050
1.404,2052
1.408,2056
1.412,2057
1.416,2049
1.42,2028
1.424,1998
1.428,1989
1.432,2089
1.436,2236
1.44,2397
1.444,2672
1.448,2903
1.452,2867
1.456,2825
1.46,2805
1.464,2692
1.468,2511
1.472,2375
1.476,2287
1.48,2182
1.484,2091
1.488,2031
1.492,2004
1.496,1992
1.5,1991
1.504,1992
1.508,1982
1.512,1978
1.516,1979
1.52,1976
1.524,1970
1.528,1965
1.532,1968
1.536,1965
1.54,1960
1.544,1955
1.548,1957
1.552,1956
1.556,1950
1.56,1946
1.564,1950
1.568,1946
1.572,1944
1.576,1944
1.58,1941
1.584,1940
1.588,1936
1.592,1932
1.596,1932
1.6,1929
1.604,1931
1.608,1930
1.612,1933
1.616,1931
1.62,1928
1.624,1928
1.628,1932
1.632,1934
1.636,1935
1.64,1936
1.644,1937
1.648,1938
1.652,1943
1.656,1945
1.66,1953
1.664,1958
1.668,1970
1.672,1981
1.676,1995
1.68,2004
1.684,2016
1.688,2019
1.692,2021
1.696,2029
1.7,2031
1.704,2030
1.708,2032
1.712,2032
1.716,2032
1.72,2032
1.724,2031
1.728,2032
1.732,2029
1.736,2032
1.74,2032
1.744,2034
1.748,2036
1.752,2034
1.756,2034
1.76,2039
1.764,2042
1.768,2044
1.772,2038
1.776,2035
1.78,2028
1.784,2031
1.788,2027
1.792,2023
1.796,2022
1.8,2023
1.804,2020
1.808,2020
1.812,2016
1.816,2017
1.82,2012
1.824,2012
1.828,2006
1.832,2008
1.836,2006
1.84,2002
1.844,2000
1.848,2002
1.852,2000
1.856,2001
1.86,2000
1.864,2001
1.868,2006
1.872,2008
1.876,2009
1.88,2006
1.884,2010
1.888,2012
1.892,2016
1.896,2019
1.9,2019
1.904,2019
1.908,2016
1.912,2018
1.916,2017
1.92,2017
1.924,2017
1.928,2016
1.932,2015
1.936,2017
1.94,2017
1.944,2015
1.948,2016
1.952,2016
1.956,2015
1.96,2018
1.964,2018
1.968,2018
1.972,2019
1.976,2018
1.98,2003
1.984,1975
1.988,1951
1.992,2014
1.996,2168
2,2330
2.004,2580
2.008,2869
2.012,2869
2.016,2748
2.02,2741
2.024,2656
2.028,2485
2.032,2341
2.036,2256
2.04,2163
2.044,2072
2.048,2008
2.052,1987
2.056,1977
2.06,1974
2.064,1969
2.068,1964
2.072,1960
2.076,1960
2.08,1956
2.084,1948
2.088,1948
2.092,1949
2.096,1949
2.1,1946
2.104,1946
2.108,1947
2.112,1946
2.116,1946
2.12,1938
2.124,1933
2.128,1935
2.132,1937
2.136,1936
2.14,1934
2.144,1932
2.148,1933
2.152,1933
2.156,1933
2.16,1933
2.164,1931
2.168,1926
2.172,1926
2.176,1925
2.18,1919
2.184,1916
2.188,1916
2.192,1917
2.196,1913
2.2,1915
2.204,1915
2.208,1916
2.212,1916
2.216,1918
2.22,1925
2.224,1934
2.228,1951
2.232,1966
2.236,1978
2.24,1987
2.244,1997
2.248,2004
2.252,2012
2.256,2014
2.26,2020
2.264,2026
2.268,2028
2.272,2029
2.276,2028
2.28,2030
2.284,2037
2.288,2041
2.292,2039
2.296,2040
2.3,2038
2.304,2040
2.308,2037
2.312,2035
2.316,2036
2.32,2035
2.324,2030
2.328,2031
2.332,2034
2.336,2033
2.34,2030
2.344,2031
2.348,2029
2.352,2024
2.356,2023
2.36,2027
2.364,2022
2.368,2026
2.372,2022
2.376,2024
2.38,2023
2.384,2020
2.388,2020
2.392,2020
2.396,2018
2.4,2021
2.404,2027
2.408,2024
2.412,2027
2.416,2030
2.42,2031
2.424,2033
2.428,2030
2.432,2033
2.436,2030
2.44,2029
2.444,2030
2.448,2028
2.452,2031
2.456,2028
2.46,2032
2.464,2033
2.468,2035
2.472,2036
2.476,2032
2.48,2033
2.484,2036
2.488,2035
2.492,2036
2.496,2038
2.5,2033
2.504,2035
2.508,2040
2.512,2036
2.516,2035
2.52,2035
2.524,2034
2.528,2028
2.532,2024
2.536,2024
2.54,2031
2.544,2032
2.548,2034
2.552,2031
2.556,2028
2.56,2025
2.564,2028
2.568,2030
2.572,2031
2.576,2030
2.58,2032
2.584,2035
2.588,2032
2.592,2033
2.596,2035
2.6,2035
2.604,2035
2.608,2036
2.612,2040
2.616,2037
2.62,2038
2.624,2037
2.628,2033
2.632,2031
2.636,2018
2.64,1984
2.644,1961
2.648,2020
2.652,2169
2.656,2323
2.66,2567
2.664,2842
2.668,2884
2.672,2778
2.676,2790
2.68,2715
2.684,2546
2.688,2389
2.692,2292
2.696,2202
2.7,2110
2.704,2048
2.708,2009
2.712,1998
2.716,1991
2.72,1988
2.724,1987
2.728,1977
2.732,1977
2.736,1978
2.74,1977
2.744,1974
2.748,1974
2.752,1977
2.756,1975
2.76,1969
2.764,1969
2.768,1968
2.772,1965
2.776,1957
2.78,1953
2.784,1950
2.788,1952
2.792,1948
2.796,1948
2.8,1950
2.804,1948
2.808,1950
2.812,1950
2.816,1945
2.82,1945
2.824,1948
2.828,1948
2.832,1949
2.836,1948
2.84,1943
2.844,1937
2.848,1936
2.852,1937
2.856,1936
2.86,1937
2.864,1943
2.868,1951
2.872,1953
2.876,1956
2.88,1966
2.884,1975
2.888,1986
2.892,1994
2.896,2006
2.9,2016
2.904,2021
2.908,2029
2.912,2039
2.916,2041
2.92,2045
2.924,2045
2.928,2050
2.932,2056
2.936,2054
2.94,2054
2.944,2059
2.948,2062
2.952,2060
2.956,2056
2.96,2058
2.964,2059
2.968,2067
2.972,2080
2.976,2097
2.98,2130
2.984,2164
2.988,2200
2.992,2240
2.996,2272
3,2325
3.004,2405
3.008,2470
3.012,2535
3.016,2600
3.02,2633
3.024,2709
3.028,2824
3.032,2948
3.036,3061
3.04,3167
3.044,3219
3.048,3220
3.052,3108
3.056,2929
3.06,2655
3.064,2370
3.068,2138
3.072,2002
3.076,1972
3.08,1962
3.084,1955
3.088,1941
3.092,1926
3.096,1925
3.1,1931
3.104,1926
3.108,1920
3.112,1914
3.116,1910
3.12,1902
3.124,1893
3.128,1888
3.132,1886
3.136,1881
3.14,1873
3.144,1870
3.148,1864
3.152,1847
3.156,1839
3.16,1827
3.164,1826
3.168,1820
3.172,1807
3.176,1797
3.18,1789
3.184,1781
3.188,1778
3.192,1769
3.196,1768
3.2,1763
3.204,1763
3.208,1761
3.212,1762
3.216,1765
3.22,1768
3.224,1779
3.228,1789
3.232,1810
3.236,1828
3.24,1846
3.244,1865
3.248,1888
3.252,1911
3.256,1931
3.26,1957
3.264,1978
3.268,1997
3.272,2010
3.276,2024
3.28,2035
3.284,2039
3.288,2044
3.292,2049
3.296,2057
3.3,2058
3.304,2058
3.308,2062
3.312,2063
3.316,2065
3.32,2068
3.324,2070
3.328,2073
3.332,2074
3.336,2072
3.34,2073
3.344,2074
3.348,2074
3.352,2073
3.356,2073
3.36,2075
3.364,2073
3.368,2074
3.372,2075
3.376,2073
3.38,2069
3.384,2069
3.388,2066
3.392,2060
3.396,2060
3.4,2063
3.404,2066
3.408,2063
3.412,2063
3.416,2066
3.42,2066
3.424,2066
3.428,2069
3.432,2071
3.436,2072
3.44,2077
3.444,2077
3.448,2077
3.452,2076
3.456,2079
3.46,2079
3.464,2081
3.468,2080
3.472,2080
3.476,2079
3.48,2080
3.484,2078
3.488,2081
3.492,2081
3.496,2081
3.5,2081
3.504,2080
3.508,2083
3.512,2078
3.516,2071
3.52,2047
3.524,2018
3.528,2036
3.532,2156
3.536,2304
3.54,2493
3.544,2793
3.548,2951
3.552,2834
3.556,2819
3.56,2783
3.564,2636
3.568,2456
3.572,2353
3.576,2267
3.58,2164
3.584,2085
3.588,2040
3.592,2033
3.596,2022
3.6,2016
3.604,2016
3.608,2009
3.612,2007
3.616,2006
3.62,2003
3.624,1998
3.628,1997
3.632,1998
3.636,1998
3.64,1998
3.644,1996
3.648,1994
3.652,1991
3.656,1989
3.66,1986
3.664,1985
3.668,1986
3.672,1981
3.676,1979
3.68,1978
3.684,1975
3.688,1974
3.692,1972
3.696,1971
3.7,1964
3.704,1959
3.708,1960
3.712,1962
3.716,1966
3.72,1965
3.724,1963
3.728,1959
3.732,1958
3.736,1959
3.74,1964
3.744,1963
3.748,1967
3.752,1970
3.756,1980
3.76,1991
3.764,2001
3.768,2012
3.772,2021
3.776,2027
3.78,2039
3.784,2040
3.788,2042
3.792,2046
3.796,2050
3.8,2051
3.804,2049
3.808,2050
3.812,2049
3.816,2048
3.82,2048
3.824,2047
3.828,2050
3.832,2048
3.836,2053
3.84,2056
3.844,2053
3.848,2051
3.852,2053
3.856,2052
3.86,2047
3.864,2050
3.868,2049
3.872,2048
3.876,2049
3.88,2048
3.884,2046
3.888,2043
3.892,2040
3.896,2034
3.9,2032
3.904,2033
3.908,2029
3.912,2026
3.916,2019
3.92,2019
3.924,2015
3.928,2014
3.932,2013
3.936,2013
3.94,2013
3.944,2011
3.948,2006
3.952,2004
3.956,2006
3.96,2011
3.964,2016
3.968,2017
3.972,2014
3.976,2012
3.98,2009
3.984,2007
3.988,2006
3.992,2004
3.996,2005
4,2005
4.004,2002
4.008,2005
4.012,2003
4.016,2004
4.02,2003
4.024,2002
4.028,2001
4.032,2001
4.036,2001
4.04,1997
4.044,2003
4.048,1999
4.052,2000
4.056,1998
4.06,1996
4.064,1995
4.068,1996
4.072,1998
4.076,1996
4.08,1991
4.084,1991
4.088,1991
4.092,1995
4.096,1998
4.1,1999
4.104,1999
4.108,1997
4.112,1986
4.116,1959
4.12,1925
4.124,1956
4.128,2090
4.132,2228
4.136,2418
4.14,2728
4.144,2863
4.148,2748
4.152,2747
4.156,2687
4.16,2521
4.164,2358
4.168,2260
4.172,2173
4.176,2070
4.18,1987
4.184,1943
4.188,1934
4.192,1927
4.196,1923
4.2,1919
4.204,1914
4.208,1907
4.212,1910
4.216,1908
4.22,1906
4.224,1906
4.228,1899
4.232,1895
4.236,1887
4.24,1887
4.244,1883
4.248,1884
4.252,1883
4.256,1883
4.26,1880
4.264,1877
4.268,1872
4.272,1871
4.276,1868
4.28,1866
4.284,1868
4.288,1867
4.292,1870
4.296,1867
4.3,1864
4.304,1860
4.308,1857
4.312,1858
4.316,1854
4.32,1850
4.324,1852
4.328,1854
4.332,1851
4.336,1854
4.34,1859
4.344,1860
4.348,1864
4.352,1870
4.356,1877
4.36,1886
4.364,1896
4.368,1910
4.372,1921
4.376,1929
4.38,1938
4.384,1941
4.388,1944
4.392,1950
4.396,1951
4.4,1951
4.404,1952
4.408,1955
4.412,1953
4.416,1956
4.42,1953
4.424,1953
4.428,1955
4.432,1953
4.436,1954
4.44,1952
4.444,1950
4.448,1949
4.452,1950
4.456,1954
4.46,1955
4.464,1953
4.468,1947
4.472,1944
4.476,1941
4.48,1937
4.484,1934
4.488,1934
4.492,1936
4.496,1933
4.5,1936
4.504,1933
4.508,1928
4.512,1928
4.516,1929
4.52,1927
4.524,1922
4.528,1925
4.532,1923
4.536,1922
4.54,1923
4.544,1920
4.548,1919
4.552,1921
4.556,1923
4.56,1927
4.564,1929
4.568,1928
4.572,1930
4.576,1930
4.58,1933
4.584,1932
4.588,1933
4.592,1935
4.596,1939
4.6,1940
4.604,1941
4.608,1940
4.612,1938
4.616,1937
4.62,1937
4.624,1933
4.628,1937
4.632,1930
4.636,1930
4.64,1934
4.644,1933
4.648,1932
4.652,1933
4.656,1930
4.66,1933
4.664,1931
4.668,1929
4.672,1930
4.676,1930
4.68,1926
4.684,1924
4.688,1925
4.692,1923
4.696,1922
4.7,1923
4.704,1921
4.708,1920
4.712,1922
4.716,1927
4.72,1931
4.724,1920
4.728,1885
4.732,1867
4.736,1948
4.74,2111
4.744,2269
4.748,2548
4.752,2802
4.756,2775
4.76,2695
4.764,2680
4.768,2573
4.772,2400
4.776,2260
4.78,2166
4.784,2078
4.788,1990
4.792,1932
4.796,1905
4.8,1898
4.804,1895
4.808,1887
4.812,1876
4.816,1872
4.82,1874
4.824,1865
4.828,1858
4.832,1853
4.836,1858
4.84,1858
4.844,1857
4.848,1856
4.852,1862
4.856,1858
4.86,1856
4.864,1855
4.868,1856
4.872,1854
4.876,1850
4.88,1853
4.884,1849
4.888,1846
4.892,1845
4.896,1839
4.9,1841
4.904,1839
4.908,1834
4.912,1834
4.916,1835
4.92,1832
4.924,1828
4.928,1827
4.932,1827
4.936,1826
4.94,1828
4.944,1827
4.948,1829
4.952,1835
4.956,1843
4.96,1848
4.964,1858
4.968,1864
4.972,1877
4.976,1888
4.98,1897
4.984,1907
4.988,1916
4.992,1925
4.996,1931
5,1941
5.004,1946
5.008,1946
5.012,1950
5.016,1953
5.02,1950
5.024,1945
5.028,1943
5.032,1947
5.036,1944
5.04,1946
5.044,1949
5.048,1952
5.052,1953
5.056,1959
5.06,1969
5.064,1968
5.068,1968
5.072,1968
5.076,1971
5.08,1978
5.084,1981
5.088,2003
5.092,2093
5.096,2268
5.1,2444
5.104,2701
5.108,2894
5.112,2886
5.116,2872
5.12,2826
5.124,2664
5.128,2437
5.132,2285
5.136,2160
5.14,2035
5.144,1964
5.148,1936
5.152,1930
5.156,1918
5.16,1911
5.164,1911
5.168,1905
5.172,1899
5.176,1901
5.18,1899
5.184,1901
5.188,1892
5.192,1894
5.196,1893
5.2,1891
5.204,1885
5.208,1884
5.212,1881
5.216,1880
5.22,1876
5.224,1876
5.228,1876
5.232,1876
5.236,1871
5.24,1869
5.244,1869
5.248,1862
5.252,1860
5.256,1858
5.26,1855
5.264,1850
5.268,1847
5.272,1840
5.276,1837
5.28,1836
5.284,1837
5.288,1837
5.292,1840
5.296,1846
5.3,1853
5.304,1859
5.308,1869
5.312,1881
5.316,1894
5.32,1907
5.324,1914
5.328,1931
5.332,1941
5.336,1952
5.34,1958
5.344,1965
5.348,1974
5.352,1971
5.356,1974
5.36,1976
5.364,1976
5.368,1981
5.372,1982
5.376,1986
5.38,1987
5.384,1989
5.388,1991
5.392,1989
5.396,1988
5.4,1985
5.404,1986
5.408,1986
5.412,1985
5.416,1987
5.42,1990
5.424,1994
5.428,1995
5.432,2000
5.436,2000
5.44,2003
5.444,2004
5.448,2005
5.452,2006
5.456,2007
5.46,2008
5.464,2007
5.468,2006
5.472,2004
5.476,2004
5.48,2004
5.484,2004
5.488,2004
5.492,2004
5.496,2001
5.5,2002
5.504,2003
5.508,2001
5.512,2004
5.516,2004
5.52,2003
5.524,2004
5.528,2004
5.532,2005
5.536,2011
5.54,2011
5.544,2011
5.548,2012
5.552,2012
5.556,2015
5.56,2020
5.564,2015
5.568,2001
5.572,1974
5.576,1960
5.58,2032
5.584,2187
5.588,2355
5.592,2622
5.596,2876
5.6,2834
5.604,2724
5.608,2717
5.612,2626
5.616,2447
5.62,2311
5.624,2229
5.628,2149
5.632,2063
5.636,2011
5.64,1992
5.644,1984
5.648,1981
5.652,1978
5.656,1971
5.66,1963
5.664,1967
5.668,1964
5.672,1960
5.676,1960
5.68,1960
5.684,1957
5.688,1957
5.692,1957
5.696,1962
5.7,1962
5.704,1958
5.708,1957
5.712,1954
5.716,1955
5.72,1951
5.724,1950
5.728,1948
5.732,1942
5.736,1936
5.74,1933
5.744,1933
5.748,1931
5.752,1928
5.756,1927
5.76,1928
5.764,1927
5.768,1925
5.772,1925
5.776,1925
5.78,1927
5.784,1925
5.788,1927
5.792,1927
5.796,1936
5.8,1946
5.804,1953
5.808,1962
5.812,1976
5.816,1996
5.82,2009
5.824,2017
5.828,2025
5.832,2038
5.836,2040
5.84,2048
5.844,2054
5.848,2056
5.852,2058
5.856,2056
5.86,2060
5.864,2064
5.868,2064
5.872,2063
5.876,2065
5.88,2069
5.884,2068
5.888,2066
5.892,2066
5.896,2063
5.9,2060
5.904,2060
5.908,2059
5.912,2059
5.916,2058
5.92,2060
5.924,2059
5.928,2059
5.932,2057
5.936,2055
5.94,2054
5.944,2054
5.948,2052
5.952,2054
5.956,2053
5.96,2054
5.964,2054
5.968,2057
5.972,2054
5.976,2050
5.98,2050
5.984,2045
5.988,2044
5.992,2045
5.996,2047
6,2048
6.004,2054
6.008,2055
6.012,2059
6.016,2058
6.02,2057
6.024,2057
6.028,2056
6.032,2054
6.036,2053
6.04,2054
6.044,2055
6.048,2056
6.052,2056
6.056,2056
6.06,2052
6.064,2047
6.068,2046
6.072,2050
6.076,2056
6.08,2062
6.084,2061
6.088,2060
6.092,2059
6.096,2060
6.1,2058
6.104,2060
6.108,2060
6.112,2057
6.116,2055
6.12,2057
6.124,2056
6.128,2057
6.132,2060
6.136,2062
6.14,2062
6.144,2059
6.148,2039
6.152,2003
6.156,1978
6.16,2053
6.164,2197
6.168,2346
6.172,2607
6.176,2874
6.18,2909
6.184,2864
6.188,2855
6.192,2757
6.196,2573
6.2,2425
6.204,2335
6.208,2233
6.212,2138
6.216,2069
6.22,2036
6.224,2024
6.228,2020
6.232,2019
6.236,2010
6.24,2005
6.244,2006
6.248,2005
6.252,1998
6.256,1995
6.26,1996
6.264,1998
6.268,1989
6.272,1986
6.276,1989
6.28,1987
6.284,1984
6.288,1985
6.292,1985
6.296,1984
6.3,1981
6.304,1977
6.308,1977
6.312,1975
6.316,1970
6.32,1973
6.324,1974
6.328,1979
6.332,1974
6.336,1973
6.34,1970
6.344,1968
6.348,1963
6.352,1959
6.356,1958
6.36,1957
6.364,1958
6.368,1960
6.372,1964
6.376,1969
6.38,1974
6.384,1983
6.388,1989
6.392,2002
6.396,2011
6.4,2026
6.404,2041
6.408,2050
6.412,2059
6.416,2066
6.42,2070
6.424,2073
6.428,2076
6.432,2075
6.436,2075
6.44,2072
6.444,2074
6.448,2075
6.452,2083
6.456,2086
6.46,2085
6.464,2085
6.468,2080
6.472,2081
6.476,2078
6.48,2076
6.484,2079
6.488,2078
6.492,2078
6.496,2078
6.5,2077
6.504,2077
6.508,2077
6.512,2079
6.516,2074
6.52,2072
6.524,2071
6.528,2068
6.532,2067
6.536,2067
6.54,2063
6.544,2064
6.548,2061
6.552,2059
6.556,2055
6.56,2050
6.564,2050
6.568,2046
6.572,2048
6.576,2048
6.58,2060
6.584,2063
6.588,2062
6.592,2061
6.596,2062
6.6,2064
6.604,2064
6.608,2065
6.612,2060
6.616,2048
6.62,2016
6.624,2035
6.628,2157
6.632,2301
6.636,2482
6.64,2781
6.644,2942
6.648,2903
6.652,2903
6.656,2848
6.66,2668
6.664,2487
6.668,2372
6.672,2275
6.676,2168
6.68,2079
6.684,2043
6.688,2030
6.692,2018
6.696,2017
6.7,2013
6.704,2009
6.708,2005
6.712,2005
6.716,2005
6.72,2002
6.724,1994
6.728,1995
6.732,1990
6.736,1985
6.74,1985
6.744,1987
6.748,1986
6.752,1987
6.756,1985
6.76,1986
6.764,1985
6.768,1980
6.772,1979
6.776,1979
6.78,1975
6.784,1971
6.788,1974
6.792,1970
6.796,1967
6.8,1959
6.804,1958
6.808,1954
6.812,1945
6.816,1941
6.82,1943
6.824,1945
6.828,1949
6.832,1950
6.836,1949
6.84,1953
6.844,1956
6.848,1963
6.852,1975
6.856,1983
6.86,1994
6.864,2007
6.868,2022
6.872,2031
6.876,2038
6.88,2048
6.884,2060
6.888,2063
6.892,2067
6.896,2070
6.9,2075
6.904,2072
6.908,2074
6.912,2074
6.916,2075
6.92,2077
6.924,2073
6.928,2073
6.932,2072
6.936,2067
6.94,2064
6.944,2062
6.948,2059
6.952,2065
6.956,2070
6.96,2072
6.964,2067
6.968,2066
6.972,2062
6.976,2058
6.98,2057
6.984,2054
6.988,2055
6.992,2053
6.996,2053
7,2054
7.004,2054
7.008,2056
7.012,2057
7.016,2057
7.02,2056
7.024,2057
7.028,2056
7.032,2056
7.036,2057
7.04,2060
7.044,2060
7.048,2059
7.052,2059
7.056,2058
7.06,2058
7.064,2055
7.068,2057
7.072,2060
7.076,2061
7.08,2067
7.084,2064
7.088,2064
7.092,2063
7.096,2063
7.1,2065
7.104,2062
7.108,2060
7.112,2065
7.116,2063
7.12,2063
7.124,2062
7.128,2062
7.132,2063
7.136,2061
7.14,2054
7.144,2031
7.148,1998
7.152,2001
7.156,2105
7.16,2256
7.164,2418
7.168,2723
7.172,2923
7.176,2852
7.18,2845
7.184,2804
7.188,2664
7.192,2486
7.196,2376
7.2,2294
7.204,2195
7.208,2100
7.212,2046
7.216,2027
7.22,2013
7.224,2006
7.228,2004
7.232,1998
7.236,1992
7.24,1989
7.244,1994
7.248,1990
7.252,1987
7.256,1985
7.26,1986
7.264,1984
7.268,1979
7.272,1983
7.276,1980
7.28,1976
7.284,1973
7.288,1971
7.292,1967
7.296,1964
7.3,1967
7.304,1965
7.308,1965
7.312,1965
7.316,1963
7.32,1964
7.324,1967
7.328,1962
7.332,1962
7.336,1959
7.34,1957
7.344,1953
7.348,1952
7.352,1949
7.356,1951
7.36,1952
7.364,1952
7.368,1955
7.372,1962
7.376,1969
7.38,1975
7.384,1987
7.388,2001
7.392,2011
7.396,2014
7.4,2028
7.404,2036
7.408,2043
7.412,2045
7.416,2052
7.42,2053
7.424,2056
7.428,2052
7.432,2051
